#Temp K	C_e		
12.497 6.776535e+03
17.492 1.253860e+04
22.487 1.552670e+04
27.482 1.699291e+04
32.477 1.812526e+04
37.472 1.941763e+04
42.467 2.130358e+04
47.462 2.322510e+04
52.457 2.535192e+04
57.452 2.755400e+04
62.447 3.013134e+04
67.442 3.243448e+04
72.437 3.476739e+04
77.432 3.733338e+04
82.427 3.950594e+04
87.422 4.199376e+04
92.417 4.468173e+04
97.412 4.699830e+04
102.407 4.925210e+04
107.402 5.175538e+04
112.397 5.451826e+04
117.392 5.660045e+04
122.387 5.934536e+04
127.382 6.139806e+04
132.377 6.410361e+04
137.372 6.679116e+04
142.367 6.893638e+04
147.362 7.169902e+04
152.357 7.394193e+04
157.352 7.655472e+04
162.347 7.886066e+04
167.342 8.162695e+04
172.337 8.417407e+04
177.332 8.643284e+04
182.327 8.916777e+04
187.322 9.135220e+04
192.317 9.425101e+04
197.312 9.664027e+04
202.307 9.944077e+04
207.302 1.017334e+05
212.297 1.044389e+05
217.292 1.069813e+05
222.287 1.095572e+05
227.282 1.119712e+05
232.277 1.148019e+05
237.272 1.174734e+05
242.267 1.198763e+05
247.262 1.227393e+05
252.257 1.254133e+05
257.252 1.279387e+05
262.247 1.308247e+05
267.242 1.332633e+05
272.237 1.361474e+05
277.232 1.385586e+05
282.227 1.417376e+05
287.222 1.441866e+05
292.217 1.470370e+05
297.212 1.494825e+05
302.207 1.524591e+05
307.202 1.552850e+05
312.197 1.582799e+05
317.192 1.606373e+05
322.187 1.638044e+05
327.182 1.662824e+05
332.177 1.693586e+05
337.172 1.720417e+05
342.167 1.750009e+05
347.162 1.776283e+05
352.157 1.805939e+05
357.152 1.832154e+05
362.147 1.864744e+05
367.142 1.888667e+05
372.137 1.918848e+05
377.132 1.949939e+05
382.127 1.975093e+05
387.122 2.007628e+05
392.117 2.031343e+05
397.112 2.062683e+05
402.107 2.091669e+05
407.102 2.119152e+05
412.097 2.151118e+05
417.092 2.174803e+05
422.087 2.206681e+05
427.082 2.233975e+05
432.077 2.263038e+05
437.072 2.290462e+05
442.067 2.320584e+05
447.062 2.348873e+05
452.057 2.376523e+05
457.052 2.403241e+05
462.047 2.435013e+05
467.042 2.460461e+05
472.037 2.491109e+05
477.032 2.517961e+05
482.027 2.543848e+05
487.022 2.576244e+05
492.017 2.601489e+05
497.012 2.629455e+05
502.007 2.657039e+05
507.002 2.684655e+05
511.997 2.714389e+05
516.992 2.741447e+05
521.987 2.767905e+05
526.982 2.794166e+05
531.977 2.823424e+05
536.972 2.849745e+05
541.967 2.875572e+05
546.962 2.904469e+05
551.957 2.930112e+05
556.952 2.959231e+05
561.947 2.984748e+05
566.942 3.010588e+05
571.937 3.039196e+05
576.932 3.061411e+05
581.927 3.093508e+05
586.922 3.115661e+05
591.917 3.141334e+05
596.912 3.169791e+05
601.907 3.195026e+05
606.902 3.220961e+05
611.897 3.245731e+05
616.892 3.271185e+05
621.887 3.296570e+05
626.882 3.321502e+05
631.877 3.349538e+05
636.872 3.371815e+05
641.867 3.399250e+05
646.862 3.421260e+05
651.857 3.448773e+05
656.852 3.472908e+05
661.847 3.497220e+05
666.842 3.521317e+05
671.837 3.544805e+05
676.832 3.568406e+05
681.827 3.594565e+05
686.822 3.617584e+05
691.817 3.643488e+05
696.812 3.665457e+05
701.807 3.690637e+05
706.802 3.712200e+05
711.797 3.736182e+05
716.792 3.763304e+05
721.787 3.783139e+05
726.782 3.806060e+05
731.777 3.828449e+05
736.772 3.853503e+05
741.767 3.877603e+05
746.762 3.897865e+05
751.757 3.921455e+05
756.752 3.943635e+05
761.747 3.965119e+05
766.742 3.989852e+05
771.737 4.009490e+05
776.732 4.032694e+05
781.727 4.054348e+05
786.722 4.078772e+05
791.717 4.098730e+05
796.712 4.121402e+05
801.707 4.143158e+05
806.702 4.163596e+05
811.697 4.186668e+05
816.692 4.205504e+05
821.687 4.229415e+05
826.682 4.249405e+05
831.677 4.271179e+05
836.672 4.292218e+05
841.667 4.314989e+05
846.662 4.333729e+05
851.657 4.354521e+05
856.652 4.376969e+05
861.647 4.394933e+05
866.642 4.415246e+05
871.637 4.437509e+05
876.632 4.458084e+05
881.627 4.477687e+05
886.622 4.498796e+05
891.617 4.518513e+05
896.612 4.540802e+05
901.607 4.557288e+05
906.602 4.579545e+05
911.597 4.596694e+05
916.592 4.619197e+05
921.587 4.639793e+05
926.582 4.655580e+05
931.577 4.676655e+05
936.572 4.699002e+05
941.567 4.713223e+05
946.562 4.735916e+05
951.557 4.756566e+05
956.552 4.772272e+05
961.547 4.796016e+05
966.542 4.811896e+05
971.537 4.831777e+05
976.532 4.847374e+05
981.527 4.870556e+05
986.522 4.888669e+05
991.517 4.904945e+05
996.512 4.925869e+05
1001.507 4.944916e+05
1006.502 4.962067e+05
1011.496 4.983810e+05
1016.491 4.997114e+05
1021.486 5.018224e+05
1026.481 5.036993e+05
1031.476 5.054519e+05
1036.471 5.075801e+05
1041.466 5.088554e+05
1046.461 5.109771e+05
1051.456 5.128186e+05
1056.451 5.144900e+05
1061.446 5.165657e+05
1066.441 5.181427e+05
1071.436 5.197954e+05
1076.431 5.215596e+05
1081.426 5.237961e+05
1086.421 5.251279e+05
1091.416 5.269290e+05
1096.411 5.287981e+05
1101.406 5.307336e+05
1106.401 5.321956e+05
1111.396 5.340463e+05
1116.391 5.356713e+05
1121.386 5.377193e+05
1126.381 5.392137e+05
1131.376 5.410912e+05
1136.371 5.427747e+05
1141.366 5.442257e+05
1146.361 5.463807e+05
1151.356 5.476878e+05
1156.351 5.496962e+05
1161.346 5.511793e+05
1166.341 5.530362e+05
1171.336 5.546530e+05
1176.331 5.563535e+05
1181.326 5.581364e+05
1186.321 5.596758e+05
1191.316 5.616201e+05
1196.311 5.629938e+05
1201.306 5.647701e+05
1206.301 5.665858e+05
1211.296 5.681524e+05
1216.291 5.698309e+05
1221.286 5.715827e+05
1226.281 5.730080e+05
1231.276 5.749036e+05
1236.271 5.761461e+05
1241.266 5.781814e+05
1246.261 5.798859e+05
1251.256 5.813707e+05
1256.251 5.828848e+05
1261.246 5.845015e+05
1266.241 5.865068e+05
1271.236 5.878528e+05
1276.231 5.896601e+05
1281.226 5.911306e+05
1286.221 5.926992e+05
1291.216 5.943278e+05
1296.211 5.960155e+05
1301.206 5.977241e+05
1306.201 5.991664e+05
1311.196 6.010262e+05
1316.191 6.022573e+05
1321.186 6.041533e+05
1326.181 6.058171e+05
1331.176 6.072108e+05
1336.171 6.089434e+05
1341.166 6.104418e+05
1346.161 6.119540e+05
1351.156 6.138025e+05
1356.151 6.151290e+05
1361.146 6.167530e+05
1366.141 6.184625e+05
1371.136 6.201822e+05
1376.131 6.213030e+05
1381.126 6.234386e+05
1386.121 6.246887e+05
1391.116 6.261945e+05
1396.111 6.278192e+05
1401.106 6.294875e+05
1406.101 6.311614e+05
1411.096 6.325179e+05
1416.091 6.343132e+05
1421.086 6.357154e+05
1426.081 6.372703e+05
1431.076 6.387531e+05
1436.071 6.403501e+05
1441.066 6.422333e+05
1446.061 6.435107e+05
1451.056 6.449008e+05
1456.051 6.468597e+05
1461.046 6.479273e+05
1466.041 6.499962e+05
1471.036 6.511359e+05
1476.031 6.529166e+05
1481.026 6.544104e+05
1486.021 6.559383e+05
1491.016 6.574626e+05
1496.011 6.590575e+05
1501.006 6.606850e+05
1506.001 6.622701e+05
1510.996 6.636033e+05
1515.991 6.652515e+05
1520.986 6.666471e+05
1525.981 6.683566e+05
1530.976 6.700961e+05
1535.971 6.711865e+05
1540.966 6.729847e+05
1545.961 6.744538e+05
1550.956 6.762342e+05
1555.951 6.774393e+05
1560.946 6.789924e+05
1565.941 6.808552e+05
1570.936 6.820673e+05
1575.931 6.836633e+05
1580.926 6.852854e+05
1585.921 6.868581e+05
1590.916 6.881739e+05
1595.911 6.898344e+05
1600.906 6.914820e+05
1605.901 6.928343e+05
1610.896 6.945299e+05
1615.891 6.958924e+05
1620.886 6.976347e+05
1625.881 6.990059e+05
1630.876 7.004371e+05
1635.871 7.021721e+05
1640.866 7.036476e+05
1645.861 7.050698e+05
1650.856 7.068694e+05
1655.851 7.083338e+05
1660.846 7.094631e+05
1665.841 7.113247e+05
1670.836 7.131312e+05
1675.831 7.143210e+05
1680.826 7.158111e+05
1685.821 7.173955e+05
1690.816 7.188864e+05
1695.811 7.204335e+05
1700.806 7.223166e+05
1705.801 7.235450e+05
1710.796 7.251089e+05
1715.791 7.263731e+05
1720.786 7.282520e+05
1725.781 7.298680e+05
1730.776 7.311086e+05
1735.771 7.326831e+05
1740.766 7.343114e+05
1745.761 7.358807e+05
1750.756 7.375034e+05
1755.751 7.388250e+05
1760.746 7.404037e+05
1765.741 7.420350e+05
1770.736 7.436436e+05
1775.731 7.449506e+05
1780.726 7.465885e+05
1785.721 7.482029e+05
1790.716 7.495154e+05
1795.711 7.514736e+05
1800.706 7.527759e+05
1805.701 7.541295e+05
1810.696 7.560523e+05
1815.691 7.573567e+05
1820.686 7.590273e+05
1825.681 7.603573e+05
1830.676 7.619774e+05
1835.671 7.636096e+05
1840.666 7.652537e+05
1845.661 7.665568e+05
1850.656 7.682243e+05
1855.651 7.698653e+05
1860.646 7.714797e+05
1865.641 7.727906e+05
1870.636 7.744268e+05
1875.631 7.760737e+05
1880.626 7.773789e+05
1885.621 7.790087e+05
1890.616 7.806485e+05
1895.611 7.822604e+05
1900.606 7.838819e+05
1905.601 7.851613e+05
1910.596 7.871154e+05
1915.591 7.884135e+05
1920.586 7.899964e+05
1925.581 7.916259e+05
1930.576 7.932263e+05
1935.571 7.945219e+05
1940.566 7.964143e+05
1945.561 7.976887e+05
1950.556 7.995590e+05
1955.551 8.008873e+05
1960.546 8.027350e+05
1965.541 8.040027e+05
1970.536 8.055526e+05
1975.531 8.074599e+05
1980.526 8.086735e+05
1985.521 8.105565e+05
1990.516 8.117839e+05
1995.511 8.136419e+05
2000.506 8.151943e+05
2005.501 8.167149e+05
2010.495 8.182035e+05
2015.490 8.200857e+05
2020.485 8.215478e+05
2025.480 8.230917e+05
2030.475 8.245649e+05
2035.470 8.260816e+05
2040.465 8.278764e+05
2045.460 8.293270e+05
2050.455 8.311313e+05
2055.450 8.325914e+05
2060.445 8.340561e+05
2065.440 8.357976e+05
2070.435 8.375814e+05
2075.430 8.389824e+05
2080.425 8.404257e+05
2085.420 8.421830e+05
2090.415 8.438674e+05
2095.410 8.453217e+05
2100.405 8.469746e+05
2105.400 8.483975e+05
2110.395 8.504044e+05
2115.390 8.517566e+05
2120.385 8.534212e+05
2125.380 8.548175e+05
2130.375 8.567580e+05
2135.370 8.581208e+05
2140.365 8.597183e+05
2145.360 8.613945e+05
2150.355 8.633046e+05
2155.350 8.646373e+05
2160.345 8.662036e+05
2165.340 8.678098e+05
2170.335 8.697257e+05
2175.330 8.709877e+05
2180.325 8.728287e+05
2185.320 8.744395e+05
2190.315 8.759356e+05
2195.310 8.775094e+05
2200.305 8.793530e+05
2205.300 8.808506e+05
2210.295 8.823872e+05
2215.290 8.841927e+05
2220.285 8.856522e+05
2225.280 8.874960e+05
2230.275 8.889164e+05
2235.270 8.907207e+05
2240.265 8.924470e+05
2245.260 8.939045e+05
2250.255 8.953225e+05
2255.250 8.973528e+05
2260.245 8.987688e+05
2265.240 9.004900e+05
2270.235 9.021710e+05
2275.230 9.035833e+05
2280.225 9.055283e+05
2285.220 9.068985e+05
2290.215 9.088395e+05
2295.210 9.101670e+05
2300.205 9.121425e+05
2305.200 9.134269e+05
2310.195 9.153586e+05
2315.190 9.169433e+05
2320.185 9.185644e+05
2325.180 9.201047e+05
2330.175 9.219860e+05
2335.170 9.235202e+05
2340.165 9.250903e+05
2345.160 9.269227e+05
2350.155 9.284470e+05
2355.150 9.302331e+05
2360.145 9.317501e+05
2365.140 9.332243e+05
2370.135 9.353027e+05
2375.130 9.368079e+05
2380.125 9.382308e+05
2385.120 9.402567e+05
2390.115 9.417099e+05
2395.110 9.434229e+05
2400.105 9.451311e+05
2405.100 9.465311e+05
2410.095 9.484934e+05
2415.090 9.501865e+05
2420.085 9.515714e+05
2425.080 9.534782e+05
2430.075 9.551552e+05
2435.070 9.567479e+05
2440.065 9.583742e+05
2445.060 9.599553e+05
2450.055 9.618722e+05
2455.050 9.634412e+05
2460.045 9.650039e+05
2465.040 9.668624e+05
2470.035 9.684124e+05
2475.030 9.699164e+05
2480.025 9.717550e+05
2485.020 9.735470e+05
2490.015 9.750304e+05
2495.010 9.768480e+05
2500.005 9.785790e+05
2505.000 9.800411e+05
2509.995 9.820979e+05
2514.990 9.835452e+05
2519.985 9.849452e+05
2524.980 9.869391e+05
2529.975 9.886640e+05
2534.970 9.903012e+05
2539.965 9.917096e+05
2544.960 9.936309e+05
2549.955 9.952832e+05
2554.950 9.969272e+05
2559.945 9.988626e+05
2564.940 1.000149e+06
2569.935 1.002027e+06
2574.930 1.003636e+06
2579.925 1.005456e+06
2584.920 1.007047e+06
2589.915 1.008589e+06
2594.910 1.010421e+06
2599.905 1.012243e+06
2604.900 1.013716e+06
2609.895 1.015519e+06
2614.890 1.017312e+06
2619.885 1.018756e+06
2624.880 1.020530e+06
2629.875 1.022252e+06
2634.870 1.023707e+06
2639.865 1.025708e+06
2644.860 1.027399e+06
2649.855 1.028782e+06
2654.850 1.030751e+06
2659.845 1.032411e+06
2664.840 1.033803e+06
2669.835 1.035698e+06
2674.830 1.037623e+06
2679.825 1.038941e+06
2684.820 1.040844e+06
2689.815 1.042397e+06
2694.810 1.044276e+06
2699.805 1.045550e+06
2704.800 1.047703e+06
2709.795 1.049210e+06
2714.790 1.050746e+06
2719.785 1.052526e+06
2724.780 1.054334e+06
2729.775 1.056090e+06
2734.770 1.057578e+06
2739.765 1.059309e+06
2744.760 1.061069e+06
2749.755 1.062479e+06
2754.750 1.064509e+06
2759.745 1.066190e+06
2764.740 1.067563e+06
2769.735 1.069555e+06
2774.730 1.070902e+06
2779.725 1.072868e+06
2784.720 1.074485e+06
2789.715 1.076088e+06
2794.710 1.078015e+06
2799.705 1.079592e+06
2804.700 1.081155e+06
2809.695 1.082746e+06
2814.690 1.084577e+06
2819.685 1.086436e+06
2824.680 1.087945e+06
2829.675 1.089482e+06
2834.670 1.091552e+06
2839.665 1.092767e+06
2844.660 1.094808e+06
2849.655 1.096248e+06
2854.650 1.098009e+06
2859.645 1.099755e+06
2864.640 1.101445e+06
2869.635 1.103163e+06
2874.630 1.104573e+06
2879.625 1.106513e+06
2884.620 1.108228e+06
2889.615 1.109553e+06
2894.610 1.111448e+06
2899.605 1.113119e+06
2904.600 1.114985e+06
2909.595 1.116334e+06
2914.590 1.118169e+06
2919.585 1.119780e+06
2924.580 1.121585e+06
2929.575 1.123166e+06
2934.570 1.124981e+06
2939.565 1.126490e+06
2944.560 1.128025e+06
2949.555 1.129794e+06
2954.550 1.131548e+06
2959.545 1.133328e+06
2964.540 1.134758e+06
2969.535 1.136507e+06
2974.530 1.138197e+06
2979.525 1.139956e+06
2984.520 1.141614e+06
2989.515 1.143008e+06
2994.510 1.144967e+06
2999.505 1.146329e+06
3004.499 1.148256e+06
3009.494 1.149876e+06
3014.489 1.151480e+06
3019.484 1.153110e+06
3024.479 1.154681e+06
3029.474 1.156525e+06
3034.469 1.158148e+06
3039.464 1.159917e+06
3044.459 1.161217e+06
3049.454 1.163285e+06
3054.449 1.164799e+06
3059.444 1.166297e+06
3064.439 1.168067e+06
3069.434 1.169574e+06
3074.429 1.171267e+06
3079.424 1.173029e+06
3084.419 1.174731e+06
3089.414 1.176171e+06
3094.409 1.178170e+06
3099.404 1.179532e+06
3104.399 1.181209e+06
3109.394 1.182869e+06
3114.389 1.184511e+06
3119.384 1.186136e+06
3124.379 1.187743e+06
3129.374 1.189621e+06
3134.369 1.190949e+06
3139.364 1.192836e+06
3144.359 1.194373e+06
3149.354 1.195937e+06
3154.349 1.197440e+06
3159.344 1.199299e+06
3164.339 1.201097e+06
3169.334 1.202260e+06
3174.329 1.204353e+06
3179.324 1.205854e+06
3184.319 1.207295e+06
3189.314 1.209047e+06
3194.309 1.210739e+06
3199.304 1.212169e+06
3204.299 1.213868e+06
3209.294 1.215593e+06
3214.289 1.217212e+06
3219.284 1.218615e+06
3224.279 1.220528e+06
3229.274 1.221895e+06
3234.269 1.223772e+06
3239.264 1.225147e+06
3244.259 1.226987e+06
3249.254 1.228282e+06
3254.249 1.230174e+06
3259.244 1.231674e+06
3264.239 1.233529e+06
3269.234 1.234795e+06
3274.229 1.236614e+06
3279.224 1.238085e+06
3284.219 1.239867e+06
3289.214 1.241061e+06
3294.209 1.243135e+06
3299.204 1.244533e+06
3304.199 1.246001e+06
3309.194 1.248019e+06
3314.189 1.249166e+06
3319.184 1.251103e+06
3324.179 1.252498e+06
3329.174 1.254203e+06
3334.169 1.255516e+06
3339.164 1.257512e+06
3344.159 1.258788e+06
3349.154 1.260419e+06
3354.149 1.262314e+06
3359.144 1.263625e+06
3364.139 1.265200e+06
3369.134 1.266801e+06
3374.129 1.268577e+06
3379.124 1.269858e+06
3384.119 1.271686e+06
3389.114 1.273168e+06
3394.109 1.274721e+06
3399.104 1.276448e+06
3404.099 1.277919e+06
3409.094 1.279417e+06
3414.089 1.281178e+06
3419.084 1.282548e+06
3424.079 1.284034e+06
3429.074 1.286021e+06
3434.069 1.287098e+06
3439.064 1.289092e+06
3444.059 1.290459e+06
3449.054 1.291808e+06
3454.049 1.293745e+06
3459.044 1.295102e+06
3464.039 1.296720e+06
3469.034 1.298275e+06
3474.029 1.299902e+06
3479.024 1.301184e+06
3484.019 1.303054e+06
3489.014 1.304579e+06
3494.009 1.305850e+06
3499.004 1.307664e+06
3503.999 1.309178e+06
3508.994 1.310674e+06
3513.989 1.312197e+06
3518.984 1.313935e+06
3523.979 1.315094e+06
3528.974 1.316887e+06
3533.969 1.318568e+06
3538.964 1.319718e+06
3543.959 1.321454e+06
3548.954 1.323125e+06
3553.949 1.324498e+06
3558.944 1.326178e+06
3563.939 1.327560e+06
3568.934 1.329202e+06
3573.929 1.330546e+06
3578.924 1.332151e+06
3583.919 1.333783e+06
3588.914 1.335350e+06
3593.909 1.336667e+06
3598.904 1.338197e+06
3603.899 1.339800e+06
3608.894 1.341339e+06
3613.889 1.342859e+06
3618.884 1.344360e+06
3623.879 1.345890e+06
3628.874 1.347400e+06
3633.869 1.348892e+06
3638.864 1.350366e+06
3643.859 1.351820e+06
3648.854 1.353534e+06
3653.849 1.354998e+06
3658.844 1.356397e+06
3663.839 1.357825e+06
3668.834 1.359510e+06
3673.829 1.360900e+06
3678.824 1.362596e+06
3683.819 1.363902e+06
3688.814 1.365331e+06
3693.809 1.366877e+06
3698.804 1.368545e+06
3703.799 1.369871e+06
3708.794 1.371455e+06
3713.789 1.372745e+06
3718.784 1.374292e+06
3723.779 1.375868e+06
3728.774 1.377426e+06
3733.769 1.378642e+06
3738.764 1.380486e+06
3743.759 1.381665e+06
3748.754 1.383197e+06
3753.749 1.384662e+06
3758.744 1.386432e+06
3763.739 1.387634e+06
3768.734 1.389092e+06
3773.729 1.390759e+06
3778.724 1.391953e+06
3783.719 1.393632e+06
3788.714 1.395064e+06
3793.709 1.396431e+06
3798.704 1.397828e+06
3803.699 1.399433e+06
3808.694 1.400841e+06
3813.689 1.402457e+06
3818.684 1.403829e+06
3823.679 1.405087e+06
3828.674 1.406745e+06
3833.669 1.408015e+06
3838.664 1.409588e+06
3843.659 1.411192e+06
3848.654 1.412408e+06
3853.649 1.413975e+06
3858.644 1.415476e+06
3863.639 1.416735e+06
3868.634 1.418248e+06
3873.629 1.419744e+06
3878.624 1.421173e+06
3883.619 1.422681e+06
3888.614 1.423850e+06
3893.609 1.425596e+06
3898.604 1.426778e+06
3903.599 1.428439e+06
3908.594 1.429585e+06
3913.589 1.431259e+06
3918.584 1.432691e+06
3923.579 1.434008e+06
3928.574 1.435454e+06
3933.569 1.436784e+06
3938.564 1.438369e+06
3943.559 1.439762e+06
3948.554 1.441088e+06
3953.549 1.442620e+06
3958.544 1.444009e+06
3963.539 1.445234e+06
3968.534 1.446859e+06
3973.529 1.448369e+06
3978.524 1.449591e+06
3983.519 1.450893e+06
3988.514 1.452399e+06
3993.509 1.453937e+06
3998.504 1.455138e+06
4003.498 1.456592e+06
4008.493 1.458078e+06
4013.488 1.459547e+06
4018.483 1.460728e+06
4023.478 1.462433e+06
4028.473 1.463628e+06
4033.468 1.465028e+06
4038.463 1.466411e+06
4043.458 1.467825e+06
4048.453 1.469223e+06
4053.448 1.470554e+06
4058.443 1.471966e+06
4063.438 1.473313e+06
4068.433 1.474642e+06
4073.428 1.476004e+06
4078.423 1.477618e+06
4083.418 1.478896e+06
4088.413 1.480207e+06
4093.408 1.481770e+06
4098.403 1.482779e+06
4103.398 1.484626e+06
4108.393 1.485551e+06
4113.388 1.487147e+06
4118.383 1.488625e+06
4123.378 1.489600e+06
4128.373 1.491313e+06
4133.368 1.492573e+06
4138.363 1.494034e+06
4143.358 1.495211e+06
4148.353 1.496689e+06
4153.348 1.497833e+06
4158.343 1.499595e+06
4163.338 1.500656e+06
4168.333 1.502118e+06
4173.328 1.503513e+06
4178.323 1.504624e+06
4183.318 1.506254e+06
4188.313 1.507383e+06
4193.308 1.508763e+06
4198.303 1.510343e+06
4203.298 1.511423e+06
4208.293 1.512754e+06
4213.288 1.514335e+06
4218.283 1.515367e+06
4223.278 1.516966e+06
4228.273 1.518232e+06
4233.268 1.519532e+06
4238.263 1.520766e+06
4243.258 1.522300e+06
4248.253 1.523552e+06
4253.248 1.524839e+06
4258.243 1.526274e+06
4263.238 1.527528e+06
4268.233 1.528716e+06
4273.228 1.530205e+06
4278.223 1.531361e+06
4283.218 1.532818e+06
4288.213 1.534310e+06
4293.208 1.535418e+06
4298.203 1.536562e+06
4303.198 1.538271e+06
4308.193 1.539384e+06
4313.188 1.540480e+06
4318.183 1.542193e+06
4323.178 1.543259e+06
4328.173 1.544573e+06
4333.168 1.545974e+06
4338.163 1.547309e+06
4343.158 1.548363e+06
4348.153 1.549982e+06
4353.148 1.551005e+06
4358.143 1.552542e+06
4363.138 1.553586e+06
4368.133 1.555142e+06
4373.128 1.556156e+06
4378.123 1.557681e+06
4383.118 1.558928e+06
4388.113 1.560211e+06
4393.108 1.561375e+06
4398.103 1.562943e+06
4403.098 1.564076e+06
4408.093 1.565350e+06
4413.088 1.566505e+06
4418.083 1.567959e+06
4423.078 1.569188e+06
4428.073 1.570560e+06
4433.068 1.571759e+06
4438.063 1.572890e+06
4443.058 1.574269e+06
4448.053 1.575737e+06
4453.048 1.576771e+06
4458.043 1.577947e+06
4463.038 1.579581e+06
4468.033 1.580622e+06
4473.028 1.581754e+06
4478.023 1.583342e+06
4483.018 1.584391e+06
4488.013 1.585740e+06
4493.008 1.586761e+06
4498.003 1.588342e+06
4502.998 1.589385e+06
4507.993 1.590937e+06
4512.988 1.591898e+06
4517.983 1.593211e+06
4522.978 1.594458e+06
4527.973 1.595689e+06
4532.968 1.597220e+06
4537.963 1.598162e+06
4542.958 1.599403e+06
4547.953 1.600837e+06
4552.948 1.602102e+06
4557.943 1.603246e+06
4562.938 1.604429e+06
4567.933 1.605598e+06
4572.928 1.607066e+06
4577.923 1.608206e+06
4582.918 1.609332e+06
4587.913 1.610497e+06
4592.908 1.611908e+06
