# cobalt, lattice heat capacity from spin-resolved DFT, calculations by Jan Vorberger
# T [K] 	   c_p [J/(m^3K)]
   1.7501251e+00   3.0985403e+01
   3.2503752e+00   1.1657926e+02
   4.7506253e+00   3.2050836e+02
   6.2508754e+00   6.9595949e+02
   7.7511256e+00   1.2952611e+03
   9.2513757e+00   2.1735996e+03
   1.0751626e+01   3.3947951e+03
   1.2251876e+01   5.0383613e+03
   1.3752126e+01   7.2084984e+03
   1.5252376e+01   1.0043502e+04
   1.6752626e+01   1.3721238e+04
   1.8252876e+01   1.8457109e+04
   1.9753127e+01   2.4494149e+04
   2.1253377e+01   3.2087733e+04
   2.2753627e+01   4.1488508e+04
   2.4253877e+01   5.2926687e+04
   2.5754127e+01   6.6599675e+04
   2.7254377e+01   8.2663811e+04
   2.8754627e+01   1.0123011e+05
   3.0254877e+01   1.2236338e+05
   3.1755128e+01   1.4608400e+05
   3.3255378e+01   1.7237139e+05
   3.4755628e+01   2.0116871e+05
   3.6255878e+01   2.3238804e+05
   3.7756128e+01   2.6591574e+05
   3.9256378e+01   3.0161765e+05
   4.0756628e+01   3.3934403e+05
   4.2256878e+01   3.7893401e+05
   4.3757129e+01   4.2021952e+05
   4.5257379e+01   4.6302884e+05
   4.6757629e+01   5.0718943e+05
   4.8257879e+01   5.5253054e+05
   4.9758129e+01   5.9888511e+05
   5.1258379e+01   6.4609148e+05
   5.2758629e+01   6.9399465e+05
   5.4258879e+01   7.4244719e+05
   5.5759130e+01   7.9130991e+05
   5.7259380e+01   8.4045236e+05
   5.8759630e+01   8.8975300e+05
   6.0259880e+01   9.3909935e+05
   6.1760130e+01   9.8838785e+05
   6.3260380e+01   1.0375238e+06
   6.4760630e+01   1.0864209e+06
   6.6260880e+01   1.1350012e+06
   6.7761131e+01   1.1831947e+06
   6.9261381e+01   1.2309386e+06
   7.0761631e+01   1.2781773e+06
   7.2261881e+01   1.3248619e+06
   7.3762131e+01   1.3709495e+06
   7.5262381e+01   1.4164030e+06
   7.6762631e+01   1.4611905e+06
   7.8262881e+01   1.5052853e+06
   7.9763132e+01   1.5486648e+06
   8.1263382e+01   1.5913109e+06
   8.2763632e+01   1.6332089e+06
   8.4263882e+01   1.6743478e+06
   8.5764132e+01   1.7147195e+06
   8.7264382e+01   1.7543189e+06
   8.8764632e+01   1.7931431e+06
   9.0264882e+01   1.8311917e+06
   9.1765133e+01   1.8684664e+06
   9.3265383e+01   1.9049703e+06
   9.4765633e+01   1.9407084e+06
   9.6265883e+01   1.9756870e+06
   9.7766133e+01   2.0099137e+06
   9.9266383e+01   2.0433970e+06
   1.0076663e+02   2.0761464e+06
   1.0226688e+02   2.1081723e+06
   1.0376713e+02   2.1394856e+06
   1.0526738e+02   2.1700979e+06
   1.0676763e+02   2.2000211e+06
   1.0826788e+02   2.2292677e+06
   1.0976813e+02   2.2578503e+06
   1.1126838e+02   2.2857819e+06
   1.1276863e+02   2.3130755e+06
   1.1426888e+02   2.3397444e+06
   1.1576913e+02   2.3658018e+06
   1.1726938e+02   2.3912609e+06
   1.1876963e+02   2.4161352e+06
   1.2026988e+02   2.4404376e+06
   1.2177014e+02   2.4641815e+06
   1.2327039e+02   2.4873796e+06
   1.2477064e+02   2.5100451e+06
   1.2627089e+02   2.5321904e+06
   1.2777114e+02   2.5538283e+06
   1.2927139e+02   2.5749709e+06
   1.3077164e+02   2.5956305e+06
   1.3227189e+02   2.6158190e+06
   1.3377214e+02   2.6355481e+06
   1.3527239e+02   2.6548294e+06
   1.3677264e+02   2.6736739e+06
   1.3827289e+02   2.6920929e+06
   1.3977314e+02   2.7100971e+06
   1.4127339e+02   2.7276970e+06
   1.4277364e+02   2.7449029e+06
   1.4427389e+02   2.7617249e+06
   1.4577414e+02   2.7781729e+06
   1.4727439e+02   2.7942564e+06
   1.4877464e+02   2.8099847e+06
   1.5027489e+02   2.8253671e+06
   1.5177514e+02   2.8404124e+06
   1.5327539e+02   2.8551292e+06
   1.5477564e+02   2.8695260e+06
   1.5627589e+02   2.8836111e+06
   1.5777614e+02   2.8973924e+06
   1.5927639e+02   2.9108777e+06
   1.6077664e+02   2.9240746e+06
   1.6227689e+02   2.9369905e+06
   1.6377714e+02   2.9496325e+06
   1.6527739e+02   2.9620077e+06
   1.6677764e+02   2.9741228e+06
   1.6827789e+02   2.9859845e+06
   1.6977814e+02   2.9975991e+06
   1.7127839e+02   3.0089729e+06
   1.7277864e+02   3.0201121e+06
   1.7427889e+02   3.0310224e+06
   1.7577914e+02   3.0417097e+06
   1.7727939e+02   3.0521796e+06
   1.7877964e+02   3.0624373e+06
   1.8027989e+02   3.0724884e+06
   1.8178014e+02   3.0823378e+06
   1.8328039e+02   3.0919905e+06
   1.8478064e+02   3.1014515e+06
   1.8628089e+02   3.1107254e+06
   1.8778114e+02   3.1198168e+06
   1.8928139e+02   3.1287302e+06
   1.9078164e+02   3.1374699e+06
   1.9228189e+02   3.1460401e+06
   1.9378214e+02   3.1544449e+06
   1.9528239e+02   3.1626883e+06
   1.9678264e+02   3.1707741e+06
   1.9828289e+02   3.1787062e+06
   1.9978314e+02   3.1864881e+06
   2.0128339e+02   3.1941236e+06
   2.0278364e+02   3.2016159e+06
   2.0428389e+02   3.2089685e+06
   2.0578414e+02   3.2161847e+06
   2.0728439e+02   3.2232676e+06
   2.0878464e+02   3.2302203e+06
   2.1028489e+02   3.2370460e+06
   2.1178514e+02   3.2437474e+06
   2.1328539e+02   3.2503275e+06
   2.1478564e+02   3.2567890e+06
   2.1628589e+02   3.2631346e+06
   2.1778614e+02   3.2693670e+06
   2.1928639e+02   3.2754888e+06
   2.2078664e+02   3.2815023e+06
   2.2228689e+02   3.2874102e+06
   2.2378714e+02   3.2932146e+06
   2.2528739e+02   3.2989179e+06
   2.2678764e+02   3.3045224e+06
   2.2828789e+02   3.3100303e+06
   2.2978814e+02   3.3154436e+06
   2.3128839e+02   3.3207644e+06
   2.3278864e+02   3.3259948e+06
   2.3428889e+02   3.3311367e+06
   2.3578914e+02   3.3361920e+06
   2.3728939e+02   3.3411625e+06
   2.3878964e+02   3.3460502e+06
   2.4028989e+02   3.3508568e+06
   2.4179015e+02   3.3555839e+06
   2.4329040e+02   3.3602333e+06
   2.4479065e+02   3.3648067e+06
   2.4629090e+02   3.3693055e+06
   2.4779115e+02   3.3737314e+06
   2.4929140e+02   3.3780859e+06
   2.5079165e+02   3.3823705e+06
   2.5229190e+02   3.3865865e+06
   2.5379215e+02   3.3907355e+06
   2.5529240e+02   3.3948188e+06
   2.5679265e+02   3.3988376e+06
   2.5829290e+02   3.4027935e+06
   2.5979315e+02   3.4066875e+06
   2.6129340e+02   3.4105210e+06
   2.6279365e+02   3.4142951e+06
   2.6429390e+02   3.4180111e+06
   2.6579415e+02   3.4216701e+06
   2.6729440e+02   3.4252732e+06
   2.6879465e+02   3.4288216e+06
   2.7029490e+02   3.4323163e+06
   2.7179515e+02   3.4357583e+06
   2.7329540e+02   3.4391487e+06
   2.7479565e+02   3.4424885e+06
   2.7629590e+02   3.4457787e+06
   2.7779615e+02   3.4490201e+06
   2.7929640e+02   3.4522139e+06
   2.8079665e+02   3.4553607e+06
   2.8229690e+02   3.4584617e+06
   2.8379715e+02   3.4615175e+06
   2.8529740e+02   3.4645291e+06
   2.8679765e+02   3.4674973e+06
   2.8829790e+02   3.4704229e+06
   2.8979815e+02   3.4733067e+06
   2.9129840e+02   3.4761495e+06
   2.9279865e+02   3.4789520e+06
   2.9429890e+02   3.4817150e+06
   2.9579915e+02   3.4844392e+06
   2.9729940e+02   3.4871253e+06
   2.9879965e+02   3.4897740e+06
   3.0029990e+02   3.4923860e+06
   3.0180015e+02   3.4949619e+06
   3.0330040e+02   3.4975023e+06
   3.0480065e+02   3.5000080e+06
   3.0630090e+02   3.5024796e+06
   3.0780115e+02   3.5049175e+06
   3.0930140e+02   3.5073225e+06
   3.1080165e+02   3.5096951e+06
   3.1230190e+02   3.5120359e+06
   3.1380215e+02   3.5143455e+06
   3.1530240e+02   3.5166243e+06
   3.1680265e+02   3.5188729e+06
   3.1830290e+02   3.5210919e+06
   3.1980315e+02   3.5232817e+06
   3.2130340e+02   3.5254428e+06
   3.2280365e+02   3.5275758e+06
   3.2430390e+02   3.5296811e+06
   3.2580415e+02   3.5317592e+06
   3.2730440e+02   3.5338105e+06
   3.2880465e+02   3.5358355e+06
   3.3030490e+02   3.5378347e+06
   3.3180515e+02   3.5398084e+06
   3.3330540e+02   3.5417571e+06
   3.3480565e+02   3.5436811e+06
   3.3630590e+02   3.5455810e+06
   3.3780615e+02   3.5474571e+06
   3.3930640e+02   3.5493098e+06
   3.4080665e+02   3.5511394e+06
   3.4230690e+02   3.5529464e+06
   3.4380715e+02   3.5547312e+06
   3.4530740e+02   3.5564939e+06
   3.4680765e+02   3.5582351e+06
   3.4830790e+02   3.5599551e+06
   3.4980815e+02   3.5616542e+06
   3.5130840e+02   3.5633327e+06
   3.5280865e+02   3.5649910e+06
   3.5430890e+02   3.5666294e+06
   3.5580915e+02   3.5682482e+06
   3.5730940e+02   3.5698477e+06
   3.5880965e+02   3.5714281e+06
   3.6030990e+02   3.5729899e+06
   3.6181016e+02   3.5745333e+06
   3.6331041e+02   3.5760586e+06
   3.6481066e+02   3.5775660e+06
   3.6631091e+02   3.5790558e+06
   3.6781116e+02   3.5805283e+06
   3.6931141e+02   3.5819838e+06
   3.7081166e+02   3.5834226e+06
   3.7231191e+02   3.5848447e+06
   3.7381216e+02   3.5862506e+06
   3.7531241e+02   3.5876405e+06
   3.7681266e+02   3.5890146e+06
   3.7831291e+02   3.5903731e+06
   3.7981316e+02   3.5917163e+06
   3.8131341e+02   3.5930444e+06
   3.8281366e+02   3.5943576e+06
   3.8431391e+02   3.5956561e+06
   3.8581416e+02   3.5969402e+06
   3.8731441e+02   3.5982101e+06
   3.8881466e+02   3.5994660e+06
   3.9031491e+02   3.6007080e+06
   3.9181516e+02   3.6019364e+06
   3.9331541e+02   3.6031513e+06
   3.9481566e+02   3.6043531e+06
   3.9631591e+02   3.6055417e+06
   3.9781616e+02   3.6067176e+06
   3.9931641e+02   3.6078807e+06
   4.0081666e+02   3.6090314e+06
   4.0231691e+02   3.6101697e+06
   4.0381716e+02   3.6112959e+06
   4.0531741e+02   3.6124101e+06
   4.0681766e+02   3.6135125e+06
   4.0831791e+02   3.6146032e+06
   4.0981816e+02   3.6156825e+06
   4.1131841e+02   3.6167504e+06
   4.1281866e+02   3.6178072e+06
   4.1431891e+02   3.6188529e+06
   4.1581916e+02   3.6198878e+06
   4.1731941e+02   3.6209120e+06
   4.1881966e+02   3.6219256e+06
   4.2031991e+02   3.6229288e+06
   4.2182016e+02   3.6239217e+06
   4.2332041e+02   3.6249044e+06
   4.2482066e+02   3.6258772e+06
   4.2632091e+02   3.6268400e+06
   4.2782116e+02   3.6277931e+06
   4.2932141e+02   3.6287367e+06
   4.3082166e+02   3.6296707e+06
   4.3232191e+02   3.6305953e+06
   4.3382216e+02   3.6315107e+06
   4.3532241e+02   3.6324170e+06
   4.3682266e+02   3.6333144e+06
   4.3832291e+02   3.6342028e+06
   4.3982316e+02   3.6350824e+06
   4.4132341e+02   3.6359535e+06
   4.4282366e+02   3.6368159e+06
   4.4432391e+02   3.6376700e+06
   4.4582416e+02   3.6385157e+06
   4.4732441e+02   3.6393532e+06
   4.4882466e+02   3.6401827e+06
   4.5032491e+02   3.6410041e+06
   4.5182516e+02   3.6418176e+06
   4.5332541e+02   3.6426233e+06
   4.5482566e+02   3.6434213e+06
   4.5632591e+02   3.6442117e+06
   4.5782616e+02   3.6449946e+06
   4.5932641e+02   3.6457700e+06
   4.6082666e+02   3.6465382e+06
   4.6232691e+02   3.6472991e+06
   4.6382716e+02   3.6480529e+06
   4.6532741e+02   3.6487996e+06
   4.6682766e+02   3.6495393e+06
   4.6832791e+02   3.6502722e+06
   4.6982816e+02   3.6509983e+06
   4.7132841e+02   3.6517176e+06
   4.7282866e+02   3.6524304e+06
   4.7432891e+02   3.6531365e+06
   4.7582916e+02   3.6538362e+06
   4.7732941e+02   3.6545295e+06
   4.7882966e+02   3.6552165e+06
   4.8032991e+02   3.6558973e+06
   4.8183017e+02   3.6565719e+06
   4.8333042e+02   3.6572403e+06
   4.8483067e+02   3.6579028e+06
   4.8633092e+02   3.6585593e+06
   4.8783117e+02   3.6592100e+06
   4.8933142e+02   3.6598548e+06
   4.9083167e+02   3.6604939e+06
   4.9233192e+02   3.6611273e+06
   4.9383217e+02   3.6617551e+06
   4.9533242e+02   3.6623774e+06
   4.9683267e+02   3.6629942e+06
   4.9833292e+02   3.6636056e+06
   4.9983317e+02   3.6642116e+06
   5.0133342e+02   3.6648124e+06
   5.0283367e+02   3.6654079e+06
   5.0433392e+02   3.6659983e+06
   5.0583417e+02   3.6665835e+06
   5.0733442e+02   3.6671637e+06
   5.0883467e+02   3.6677389e+06
   5.1033492e+02   3.6683092e+06
   5.1183517e+02   3.6688746e+06
   5.1333542e+02   3.6694351e+06
   5.1483567e+02   3.6699909e+06
   5.1633592e+02   3.6705420e+06
   5.1783617e+02   3.6710884e+06
   5.1933642e+02   3.6716303e+06
   5.2083667e+02   3.6721675e+06
   5.2233692e+02   3.6727002e+06
   5.2383717e+02   3.6732285e+06
   5.2533742e+02   3.6737524e+06
   5.2683767e+02   3.6742719e+06
   5.2833792e+02   3.6747871e+06
   5.2983817e+02   3.6752980e+06
   5.3133842e+02   3.6758047e+06
   5.3283867e+02   3.6763073e+06
   5.3433892e+02   3.6768057e+06
   5.3583917e+02   3.6773000e+06
   5.3733942e+02   3.6777903e+06
   5.3883967e+02   3.6782766e+06
   5.4033992e+02   3.6787589e+06
   5.4184017e+02   3.6792373e+06
   5.4334042e+02   3.6797119e+06
   5.4484067e+02   3.6801826e+06
   5.4634092e+02   3.6806496e+06
   5.4784117e+02   3.6811128e+06
   5.4934142e+02   3.6815723e+06
   5.5084167e+02   3.6820281e+06
   5.5234192e+02   3.6824803e+06
   5.5384217e+02   3.6829289e+06
   5.5534242e+02   3.6833740e+06
   5.5684267e+02   3.6838156e+06
   5.5834292e+02   3.6842536e+06
   5.5984317e+02   3.6846883e+06
   5.6134342e+02   3.6851195e+06
   5.6284367e+02   3.6855473e+06
   5.6434392e+02   3.6859718e+06
   5.6584417e+02   3.6863931e+06
   5.6734442e+02   3.6868110e+06
   5.6884467e+02   3.6872257e+06
   5.7034492e+02   3.6876372e+06
   5.7184517e+02   3.6880456e+06
   5.7334542e+02   3.6884508e+06
   5.7484567e+02   3.6888529e+06
   5.7634592e+02   3.6892519e+06
   5.7784617e+02   3.6896479e+06
   5.7934642e+02   3.6900409e+06
   5.8084667e+02   3.6904309e+06
   5.8234692e+02   3.6908179e+06
   5.8384717e+02   3.6912021e+06
   5.8534742e+02   3.6915833e+06
   5.8684767e+02   3.6919617e+06
   5.8834792e+02   3.6923372e+06
   5.8984817e+02   3.6927099e+06
   5.9134842e+02   3.6930799e+06
   5.9284867e+02   3.6934471e+06
   5.9434892e+02   3.6938116e+06
   5.9584917e+02   3.6941733e+06
   5.9734942e+02   3.6945324e+06
   5.9884967e+02   3.6948889e+06
   6.0034992e+02   3.6952428e+06
   6.0185018e+02   3.6955940e+06
   6.0335043e+02   3.6959427e+06
   6.0485068e+02   3.6962888e+06
   6.0635093e+02   3.6966324e+06
   6.0785118e+02   3.6969736e+06
   6.0935143e+02   3.6973122e+06
   6.1085168e+02   3.6976484e+06
   6.1235193e+02   3.6979822e+06
   6.1385218e+02   3.6983136e+06
   6.1535243e+02   3.6986426e+06
   6.1685268e+02   3.6989692e+06
   6.1835293e+02   3.6992935e+06
   6.1985318e+02   3.6996155e+06
   6.2135343e+02   3.6999352e+06
   6.2285368e+02   3.7002527e+06
   6.2435393e+02   3.7005679e+06
   6.2585418e+02   3.7008809e+06
   6.2735443e+02   3.7011916e+06
   6.2885468e+02   3.7015002e+06
   6.3035493e+02   3.7018066e+06
   6.3185518e+02   3.7021109e+06
   6.3335543e+02   3.7024131e+06
   6.3485568e+02   3.7027131e+06
   6.3635593e+02   3.7030111e+06
   6.3785618e+02   3.7033070e+06
   6.3935643e+02   3.7036009e+06
   6.4085668e+02   3.7038927e+06
   6.4235693e+02   3.7041825e+06
   6.4385718e+02   3.7044703e+06
   6.4535743e+02   3.7047562e+06
   6.4685768e+02   3.7050401e+06
   6.4835793e+02   3.7053221e+06
   6.4985818e+02   3.7056021e+06
   6.5135843e+02   3.7058802e+06
   6.5285868e+02   3.7061565e+06
   6.5435893e+02   3.7064309e+06
   6.5585918e+02   3.7067034e+06
   6.5735943e+02   3.7069741e+06
   6.5885968e+02   3.7072430e+06
   6.6035993e+02   3.7075101e+06
   6.6186018e+02   3.7077754e+06
   6.6336043e+02   3.7080389e+06
   6.6486068e+02   3.7083007e+06
   6.6636093e+02   3.7085607e+06
   6.6786118e+02   3.7088190e+06
   6.6936143e+02   3.7090756e+06
   6.7086168e+02   3.7093305e+06
   6.7236193e+02   3.7095838e+06
   6.7386218e+02   3.7098353e+06
   6.7536243e+02   3.7100852e+06
   6.7686268e+02   3.7103335e+06
   6.7836293e+02   3.7105802e+06
   6.7986318e+02   3.7108252e+06
   6.8136343e+02   3.7110687e+06
   6.8286368e+02   3.7113105e+06
   6.8436393e+02   3.7115508e+06
   6.8586418e+02   3.7117896e+06
   6.8736443e+02   3.7120268e+06
   6.8886468e+02   3.7122625e+06
   6.9036493e+02   3.7124967e+06
   6.9186518e+02   3.7127294e+06
   6.9336543e+02   3.7129605e+06
   6.9486568e+02   3.7131903e+06
   6.9636593e+02   3.7134185e+06
   6.9786618e+02   3.7136453e+06
   6.9936643e+02   3.7138707e+06
   7.0086668e+02   3.7140946e+06
   7.0236693e+02   3.7143171e+06
   7.0386718e+02   3.7145383e+06
   7.0536743e+02   3.7147580e+06
   7.0686768e+02   3.7149763e+06
   7.0836793e+02   3.7151933e+06
   7.0986818e+02   3.7154090e+06
   7.1136843e+02   3.7156232e+06
   7.1286868e+02   3.7158362e+06
   7.1436893e+02   3.7160478e+06
   7.1586918e+02   3.7162581e+06
   7.1736943e+02   3.7164671e+06
   7.1886968e+02   3.7166749e+06
   7.2036993e+02   3.7168813e+06
   7.2187019e+02   3.7170865e+06
   7.2337044e+02   3.7172904e+06
   7.2487069e+02   3.7174931e+06
   7.2637094e+02   3.7176945e+06
   7.2787119e+02   3.7178947e+06
   7.2937144e+02   3.7180937e+06
   7.3087169e+02   3.7182915e+06
   7.3237194e+02   3.7184881e+06
   7.3387219e+02   3.7186834e+06
   7.3537244e+02   3.7188776e+06
   7.3687269e+02   3.7190707e+06
   7.3837294e+02   3.7192626e+06
   7.3987319e+02   3.7194533e+06
   7.4137344e+02   3.7196429e+06
   7.4287369e+02   3.7198313e+06
   7.4437394e+02   3.7200186e+06
   7.4587419e+02   3.7202048e+06
   7.4737444e+02   3.7203899e+06
   7.4887469e+02   3.7205739e+06
   7.5037494e+02   3.7207569e+06
   7.5187519e+02   3.7209387e+06
   7.5337544e+02   3.7211195e+06
   7.5487569e+02   3.7212992e+06
   7.5637594e+02   3.7214778e+06
   7.5787619e+02   3.7216554e+06
   7.5937644e+02   3.7218319e+06
   7.6087669e+02   3.7220075e+06
   7.6237694e+02   3.7221820e+06
   7.6387719e+02   3.7223555e+06
   7.6537744e+02   3.7225279e+06
   7.6687769e+02   3.7226994e+06
   7.6837794e+02   3.7228699e+06
   7.6987819e+02   3.7230394e+06
   7.7137844e+02   3.7232079e+06
   7.7287869e+02   3.7233755e+06
   7.7437894e+02   3.7235421e+06
   7.7587919e+02   3.7237077e+06
   7.7737944e+02   3.7238724e+06
   7.7887969e+02   3.7240362e+06
   7.8037994e+02   3.7241990e+06
   7.8188019e+02   3.7243609e+06
   7.8338044e+02   3.7245218e+06
   7.8488069e+02   3.7246819e+06
   7.8638094e+02   3.7248411e+06
   7.8788119e+02   3.7249993e+06
   7.8938144e+02   3.7251567e+06
   7.9088169e+02   3.7253132e+06
   7.9238194e+02   3.7254688e+06
   7.9388219e+02   3.7256235e+06
   7.9538244e+02   3.7257774e+06
   7.9688269e+02   3.7259304e+06
   7.9838294e+02   3.7260825e+06
   7.9988319e+02   3.7262338e+06
   8.0138344e+02   3.7263843e+06
   8.0288369e+02   3.7265339e+06
   8.0438394e+02   3.7266827e+06
   8.0588419e+02   3.7268307e+06
   8.0738444e+02   3.7269779e+06
   8.0888469e+02   3.7271242e+06
   8.1038494e+02   3.7272698e+06
   8.1188519e+02   3.7274145e+06
   8.1338544e+02   3.7275585e+06
   8.1488569e+02   3.7277017e+06
   8.1638594e+02   3.7278441e+06
   8.1788619e+02   3.7279857e+06
   8.1938644e+02   3.7281266e+06
   8.2088669e+02   3.7282666e+06
   8.2238694e+02   3.7284060e+06
   8.2388719e+02   3.7285446e+06
   8.2538744e+02   3.7286824e+06
   8.2688769e+02   3.7288195e+06
   8.2838794e+02   3.7289558e+06
   8.2988819e+02   3.7290914e+06
   8.3138844e+02   3.7292263e+06
   8.3288869e+02   3.7293605e+06
   8.3438894e+02   3.7294940e+06
   8.3588919e+02   3.7296267e+06
   8.3738944e+02   3.7297588e+06
   8.3888969e+02   3.7298901e+06
   8.4038994e+02   3.7300207e+06
   8.4189020e+02   3.7301507e+06
   8.4339045e+02   3.7302800e+06
   8.4489070e+02   3.7304085e+06
   8.4639095e+02   3.7305364e+06
   8.4789120e+02   3.7306637e+06
   8.4939145e+02   3.7307902e+06
   8.5089170e+02   3.7309162e+06
   8.5239195e+02   3.7310414e+06
   8.5389220e+02   3.7311660e+06
   8.5539245e+02   3.7312899e+06
   8.5689270e+02   3.7314132e+06
   8.5839295e+02   3.7315359e+06
   8.5989320e+02   3.7316579e+06
   8.6139345e+02   3.7317793e+06
   8.6289370e+02   3.7319001e+06
   8.6439395e+02   3.7320202e+06
   8.6589420e+02   3.7321397e+06
   8.6739445e+02   3.7322587e+06
   8.6889470e+02   3.7323770e+06
   8.7039495e+02   3.7324947e+06
   8.7189520e+02   3.7326117e+06
   8.7339545e+02   3.7327282e+06
   8.7489570e+02   3.7328441e+06
   8.7639595e+02   3.7329595e+06
   8.7789620e+02   3.7330742e+06
   8.7939645e+02   3.7331883e+06
   8.8089670e+02   3.7333019e+06
   8.8239695e+02   3.7334149e+06
   8.8389720e+02   3.7335273e+06
   8.8539745e+02   3.7336392e+06
   8.8689770e+02   3.7337505e+06
   8.8839795e+02   3.7338612e+06
   8.8989820e+02   3.7339714e+06
   8.9139845e+02   3.7340810e+06
   8.9289870e+02   3.7341901e+06
   8.9439895e+02   3.7342987e+06
   8.9589920e+02   3.7344067e+06
   8.9739945e+02   3.7345141e+06
   8.9889970e+02   3.7346211e+06
   9.0039995e+02   3.7347275e+06
   9.0190020e+02   3.7348333e+06
   9.0340045e+02   3.7349387e+06
