# iron, electron heat capacity from spin-resolved DFT, sum of majo and mino c_e, calculations by Jan Vorberger
# T [K] 	   c_e [J/(m^3K)]
   2.0000000e+02   3.4976365e+04
   2.3960000e+02   4.2129817e+04
   2.7920000e+02   4.9059287e+04
   3.1880000e+02   5.6399805e+04
   3.5840000e+02   6.3580520e+04
   3.9800000e+02   7.0415318e+04
   4.3760000e+02   7.6919771e+04
   4.7720000e+02   8.5096498e+04
   5.1680000e+02   9.3313750e+04
   5.5640000e+02   1.0053194e+05
   5.9600000e+02   1.0704117e+05
   6.3560000e+02   1.1606357e+05
   6.7520000e+02   1.2399378e+05
   7.1480000e+02   1.3193827e+05
   7.5440000e+02   1.3987501e+05
   7.9400000e+02   1.4776766e+05
   8.3360000e+02   1.5538842e+05
   8.7320000e+02   1.6307510e+05
   9.1280000e+02   1.7085080e+05
   9.5240000e+02   1.7891836e+05
   9.9200000e+02   1.8715587e+05
   1.0316000e+03   1.9413344e+05
   1.0712000e+03   2.0193365e+05
   1.1108000e+03   2.0911471e+05
   1.1504000e+03   2.3021915e+05
   1.1900000e+03   2.2520962e+05
   1.2296000e+03   2.3119230e+05
   1.2692000e+03   2.4043266e+05
   1.3088000e+03   2.4613909e+05
   1.3484000e+03   2.5311215e+05
   1.3880000e+03   2.5964573e+05
   1.4276000e+03   2.7057506e+05
   1.4672000e+03   2.7396730e+05
   1.5068000e+03   2.8089557e+05
   1.5464000e+03   2.8780514e+05
   1.5860000e+03   2.9486964e+05
   1.6256000e+03   3.0083584e+05
   1.6652000e+03   3.0887723e+05
   1.7048000e+03   3.5129382e+05
   1.7444000e+03   3.2242621e+05
   1.7840000e+03   3.3132676e+05
   1.8236000e+03   3.4000375e+05
   1.8632000e+03   3.3071529e+05
   1.9028000e+03   3.5065079e+05
   1.9424000e+03   3.5855030e+05
   1.9820000e+03   3.6478531e+05
   2.0216000e+03   3.6994614e+05
   2.0612000e+03   3.7999264e+05
   2.1008000e+03   4.0147516e+05
   2.1404000e+03   3.9506656e+05
   2.1800000e+03   4.0199997e+05
   2.2196000e+03   4.0928117e+05
   2.2592000e+03   4.1420966e+05
   2.2988000e+03   4.3039464e+05
   2.3384000e+03   4.3232605e+05
   2.3780000e+03   4.4164170e+05
   2.4176000e+03   4.5045057e+05
   2.4572000e+03   4.5912729e+05
   2.4968000e+03   4.6581725e+05
   2.5364000e+03   4.7386258e+05
   2.5760000e+03   4.8215696e+05
   2.6156000e+03   4.9117826e+05
   2.6552000e+03   5.0105880e+05
   2.6948000e+03   5.0687711e+05
   2.7344000e+03   5.1763014e+05
   2.7740000e+03   5.2693331e+05
   2.8136000e+03   5.3446645e+05
   2.8532000e+03   5.4304341e+05
   2.8928000e+03   5.5403564e+05
   2.9324000e+03   5.6024955e+05
   2.9720000e+03   5.7826363e+05
   3.0116000e+03   5.8040833e+05
   3.0512000e+03   5.8918147e+05
   3.0908000e+03   5.8374121e+05
   3.1304000e+03   5.9679707e+05
   3.1700000e+03   6.1771772e+05
   3.2096000e+03   6.2787121e+05
   3.2492000e+03   6.3769692e+05
   3.2888000e+03   6.4829718e+05
   3.3284000e+03   6.5651891e+05
   3.3680000e+03   6.7043536e+05
   3.4076000e+03   6.7794991e+05
   3.4472000e+03   6.8679908e+05
   3.4868000e+03   6.8296300e+05
   3.5264000e+03   6.9092024e+05
   3.5660000e+03   6.5016803e+05
   3.6056000e+03   7.2674429e+05
   3.6452000e+03   7.3672187e+05
   3.6848000e+03   7.4732282e+05
   3.7244000e+03   7.5776444e+05
   3.7640000e+03   7.6699007e+05
   3.8036000e+03   7.7376983e+05
   3.8432000e+03   7.9049946e+05
   3.8828000e+03   8.0054932e+05
   3.9224000e+03   8.0891075e+05
   3.9620000e+03   8.1408423e+05
   4.0016000e+03   8.3329811e+05
   4.0412000e+03   8.7323829e+05
   4.0808000e+03   8.5172823e+05
   4.1204000e+03   8.6225273e+05
   4.1600000e+03   8.6925893e+05
   4.1996000e+03   8.8279029e+05
   4.2392000e+03   8.9724451e+05
   4.2788000e+03   9.0408346e+05
   4.3184000e+03   9.1427129e+05
   4.3580000e+03   9.2790033e+05
   4.3976000e+03   9.3265017e+05
   4.4372000e+03   9.5065268e+05
   4.4768000e+03   9.5292527e+05
   4.5164000e+03   9.6727877e+05
   4.5560000e+03   9.7870761e+05
   4.5956000e+03   9.9222543e+05
   4.6352000e+03   9.9969658e+05
   4.6748000e+03   1.0192055e+06
   4.7144000e+03   1.0142626e+06
   4.7540000e+03   1.0308002e+06
   4.7936000e+03   1.0438131e+06
   4.8332000e+03   1.0502310e+06
   4.8728000e+03   1.0556918e+06
   4.9124000e+03   1.0768630e+06
   4.9520000e+03   1.0866454e+06
   4.9916000e+03   1.1194676e+06
   5.0312000e+03   1.1089302e+06
   5.0708000e+03   1.1212123e+06
   5.1104000e+03   1.1287254e+06
   5.1500000e+03   1.1314005e+06
   5.1896000e+03   1.1388746e+06
   5.2292000e+03   1.1546289e+06
   5.2688000e+03   1.1993231e+06
   5.3084000e+03   1.1780933e+06
   5.3480000e+03   1.1854303e+06
   5.3876000e+03   1.2028735e+06
   5.4272000e+03   1.1875694e+06
   5.4668000e+03   1.2244984e+06
   5.5064000e+03   1.2293152e+06
   5.5460000e+03   1.2451074e+06
   5.5856000e+03   1.2555061e+06
   5.6252000e+03   1.2569584e+06
   5.6648000e+03   1.2754426e+06
   5.7044000e+03   1.2883199e+06
   5.7440000e+03   1.3073579e+06
   5.7836000e+03   1.3296249e+06
   5.8232000e+03   1.3304744e+06
   5.8628000e+03   1.3322152e+06
   5.9024000e+03   1.3379717e+06
   5.9420000e+03   1.3486135e+06
   5.9816000e+03   1.3578350e+06
   6.0212000e+03   1.3684410e+06
   6.0608000e+03   1.3746369e+06
   6.1004000e+03   1.3906408e+06
   6.1400000e+03   1.4001526e+06
   6.1796000e+03   1.4025317e+06
   6.2192000e+03   1.4193403e+06
   6.2588000e+03   1.4343287e+06
   6.2984000e+03   1.4495140e+06
   6.3380000e+03   1.4516945e+06
   6.3776000e+03   1.4637693e+06
   6.4172000e+03   1.4768191e+06
   6.4568000e+03   1.4852184e+06
   6.4964000e+03   1.4957523e+06
   6.5360000e+03   1.5059574e+06
   6.5756000e+03   1.5235718e+06
   6.6152000e+03   1.5378990e+06
   6.6548000e+03   1.5480169e+06
   6.6944000e+03   1.5488833e+06
   6.7340000e+03   1.5628686e+06
   6.7736000e+03   1.5689604e+06
   6.8132000e+03   1.5825741e+06
   6.8528000e+03   1.5784330e+06
   6.8924000e+03   1.6082129e+06
   6.9320000e+03   1.6123916e+06
   6.9716000e+03   1.6292291e+06
   7.0112000e+03   1.6428412e+06
   7.0508000e+03   1.6488929e+06
   7.0904000e+03   1.6621102e+06
   7.1300000e+03   1.6730852e+06
   7.1696000e+03   1.6670377e+06
   7.2092000e+03   1.6845504e+06
   7.2488000e+03   1.6980916e+06
   7.2884000e+03   1.7073945e+06
   7.3280000e+03   1.7176216e+06
   7.3676000e+03   1.7283323e+06
   7.4072000e+03   1.7439813e+06
   7.4468000e+03   1.7513148e+06
   7.4864000e+03   1.7618214e+06
   7.5260000e+03   1.7740976e+06
   7.5656000e+03   1.7787002e+06
   7.6052000e+03   1.7897242e+06
   7.6448000e+03   1.8002608e+06
   7.6844000e+03   1.8091223e+06
   7.7240000e+03   1.8145624e+06
   7.7636000e+03   1.8278373e+06
   7.8032000e+03   1.8404062e+06
   7.8428000e+03   1.8493230e+06
   7.8824000e+03   1.8606947e+06
   7.9220000e+03   1.8690821e+06
   7.9616000e+03   1.8773527e+06
   8.0012000e+03   1.8888306e+06
   8.0408000e+03   1.8985869e+06
   8.0804000e+03   1.8963326e+06
   8.1200000e+03   1.9133761e+06
   8.1596000e+03   1.9298419e+06
   8.1992000e+03   1.9369308e+06
   8.2388000e+03   1.9448740e+06
   8.2784000e+03   1.9619869e+06
   8.3180000e+03   1.9698887e+06
   8.3576000e+03   1.9723969e+06
   8.3972000e+03   1.9838438e+06
   8.4368000e+03   1.9966539e+06
   8.4764000e+03   2.0223506e+06
   8.5160000e+03   2.0125835e+06
   8.5556000e+03   2.0198527e+06
   8.5952000e+03   2.0290268e+06
   8.6348000e+03   2.0379493e+06
   8.6744000e+03   2.0484348e+06
   8.7140000e+03   2.0553540e+06
   8.7536000e+03   2.0678889e+06
   8.7932000e+03   2.0740755e+06
   8.8328000e+03   2.0811208e+06
   8.8724000e+03   2.0899562e+06
   8.9120000e+03   2.1010582e+06
   8.9516000e+03   2.1095427e+06
   8.9912000e+03   2.1180728e+06
   9.0308000e+03   2.1275988e+06
   9.0704000e+03   2.1353619e+06
   9.1100000e+03   2.1496917e+06
   9.1496000e+03   2.1624573e+06
   9.1892000e+03   2.1653793e+06
   9.2288000e+03   2.1560432e+06
   9.2684000e+03   2.1768350e+06
   9.3080000e+03   2.1601762e+06
   9.3476000e+03   2.1953925e+06
   9.3872000e+03   2.2017767e+06
   9.4268000e+03   2.2090460e+06
   9.4664000e+03   2.2164553e+06
   9.5060000e+03   2.2260075e+06
   9.5456000e+03   2.2379494e+06
   9.5852000e+03   2.2656080e+06
   9.6248000e+03   2.2514059e+06
   9.6644000e+03   2.2647022e+06
   9.7040000e+03   2.2678440e+06
   9.7436000e+03   2.2759950e+06
   9.7832000e+03   2.2831822e+06
   9.8228000e+03   2.2901867e+06
   9.8624000e+03   2.2990638e+06
   9.9020000e+03   2.3065334e+06
   9.9416000e+03   2.3181757e+06
   9.9812000e+03   2.3224298e+06
   1.0020800e+04   2.3312964e+06
   1.0060400e+04   2.3380409e+06
   1.0100000e+04   2.3393366e+06
   1.0139600e+04   2.3527189e+06
   1.0179200e+04   2.3620965e+06
   1.0218800e+04   2.3626558e+06
   1.0258400e+04   2.3615387e+06
   1.0298000e+04   2.3804996e+06
   1.0337600e+04   2.3898164e+06
   1.0377200e+04   2.3916213e+06
   1.0416800e+04   2.4034902e+06
   1.0456400e+04   2.4111141e+06
   1.0496000e+04   2.4277774e+06
   1.0535600e+04   2.4276665e+06
   1.0575200e+04   2.4314752e+06
   1.0614800e+04   2.4370181e+06
   1.0654400e+04   2.4421491e+06
   1.0694000e+04   2.4499394e+06
   1.0733600e+04   2.4578316e+06
   1.0773200e+04   2.4622753e+06
   1.0812800e+04   2.4689727e+06
   1.0852400e+04   2.4836419e+06
   1.0892000e+04   2.4903872e+06
   1.0931600e+04   2.4961600e+06
   1.0971200e+04   2.4947003e+06
   1.1010800e+04   2.5095914e+06
   1.1050400e+04   2.5079156e+06
   1.1090000e+04   2.5130645e+06
   1.1129600e+04   2.5262889e+06
   1.1169200e+04   2.5367099e+06
   1.1208800e+04   2.5713875e+06
   1.1248400e+04   2.5405083e+06
   1.1288000e+04   2.5467024e+06
   1.1327600e+04   2.5559382e+06
   1.1367200e+04   2.5607942e+06
   1.1406800e+04   2.5471104e+06
   1.1446400e+04   2.5875816e+06
   1.1486000e+04   2.5820810e+06
   1.1525600e+04   2.5872755e+06
   1.1565200e+04   2.5909774e+06
   1.1604800e+04   2.6035918e+06
   1.1644400e+04   2.6014335e+06
   1.1684000e+04   2.6084618e+06
   1.1723600e+04   2.6136488e+06
   1.1763200e+04   2.6159772e+06
   1.1802800e+04   2.6207966e+06
   1.1842400e+04   2.6575234e+06
   1.1882000e+04   2.6414004e+06
   1.1921600e+04   2.6551875e+06
   1.1961200e+04   2.6628450e+06
   1.2000800e+04   2.6567229e+06
   1.2040400e+04   2.6596106e+06
   1.2080000e+04   2.6666054e+06
   1.2119600e+04   2.6686177e+06
   1.2159200e+04   2.6785856e+06
   1.2198800e+04   2.6889805e+06
   1.2238400e+04   2.6848840e+06
   1.2278000e+04   2.6902590e+06
   1.2317600e+04   2.7057330e+06
   1.2357200e+04   2.7048747e+06
   1.2396800e+04   2.7050302e+06
   1.2436400e+04   2.7130105e+06
   1.2476000e+04   2.6874072e+06
   1.2515600e+04   2.7205474e+06
   1.2555200e+04   2.7253964e+06
   1.2594800e+04   2.7295431e+06
   1.2634400e+04   2.7405062e+06
   1.2674000e+04   2.7389223e+06
   1.2713600e+04   2.7222191e+06
   1.2753200e+04   2.7611469e+06
   1.2792800e+04   2.7640579e+06
   1.2832400e+04   2.7704594e+06
   1.2872000e+04   2.7741139e+06
   1.2911600e+04   2.7750240e+06
   1.2951200e+04   2.7727485e+06
   1.2990800e+04   2.7711279e+06
   1.3030400e+04   2.7752310e+06
   1.3070000e+04   2.7797673e+06
   1.3109600e+04   2.7748826e+06
   1.3149200e+04   2.7780064e+06
   1.3188800e+04   2.7780426e+06
   1.3228400e+04   2.7983311e+06
   1.3268000e+04   2.7928267e+06
   1.3307600e+04   2.7928137e+06
   1.3347200e+04   2.8017266e+06
   1.3386800e+04   2.8111238e+06
   1.3426400e+04   2.8124723e+06
   1.3466000e+04   2.8085658e+06
   1.3505600e+04   2.8146632e+06
   1.3545200e+04   2.8178812e+06
   1.3584800e+04   2.8333801e+06
   1.3624400e+04   2.8684724e+06
   1.3664000e+04   2.8446327e+06
   1.3703600e+04   2.8441997e+06
   1.3743200e+04   2.8477350e+06
   1.3782800e+04   2.8539236e+06
   1.3822400e+04   2.8559363e+06
   1.3862000e+04   2.8513248e+06
   1.3901600e+04   2.8530364e+06
   1.3941200e+04   2.8860147e+06
   1.3980800e+04   2.8747092e+06
   1.4020400e+04   2.8910473e+06
   1.4060000e+04   2.8850838e+06
   1.4099600e+04   2.8853326e+06
   1.4139200e+04   2.8838041e+06
   1.4178800e+04   2.8881480e+06
   1.4218400e+04   2.9021101e+06
   1.4258000e+04   2.8812452e+06
   1.4297600e+04   2.8830635e+06
   1.4337200e+04   2.9059025e+06
   1.4376800e+04   2.9076283e+06
   1.4416400e+04   2.9111405e+06
   1.4456000e+04   2.9157165e+06
   1.4495600e+04   2.9193649e+06
   1.4535200e+04   2.9226426e+06
   1.4574800e+04   2.9267387e+06
   1.4614400e+04   2.9298382e+06
   1.4654000e+04   2.9021200e+06
   1.4693600e+04   2.9051315e+06
   1.4733200e+04   2.9400962e+06
   1.4772800e+04   2.9430683e+06
   1.4812400e+04   2.9457562e+06
   1.4852000e+04   2.9473760e+06
   1.4891600e+04   2.9458249e+06
   1.4931200e+04   2.9517736e+06
   1.4970800e+04   2.9544957e+06
   1.5010400e+04   2.9658191e+06
   1.5050000e+04   2.9743648e+06
   1.5089600e+04   2.9713378e+06
   1.5129200e+04   2.9671006e+06
   1.5168800e+04   2.9697277e+06
   1.5208400e+04   2.9724006e+06
   1.5248000e+04   2.9753041e+06
   1.5287600e+04   2.9769695e+06
   1.5327200e+04   2.9795472e+06
   1.5366800e+04   2.9815044e+06
   1.5406400e+04   2.9869588e+06
   1.5446000e+04   2.9862716e+06
   1.5485600e+04   2.9890477e+06
   1.5525200e+04   2.9921792e+06
   1.5564800e+04   2.9946255e+06
   1.5604400e+04   2.9969202e+06
   1.5644000e+04   2.9962374e+06
   1.5683600e+04   3.0002151e+06
   1.5723200e+04   3.0022587e+06
   1.5762800e+04   3.0063307e+06
   1.5802400e+04   3.0078771e+06
   1.5842000e+04   3.0064263e+06
   1.5881600e+04   3.0146545e+06
   1.5921200e+04   3.0133390e+06
   1.5960800e+04   3.0176050e+06
   1.6000400e+04   3.0154713e+06
   1.6040000e+04   3.0243292e+06
   1.6079600e+04   3.0287037e+06
   1.6119200e+04   3.0305106e+06
   1.6158800e+04   3.0345552e+06
   1.6198400e+04   3.0241204e+06
   1.6238000e+04   3.0386605e+06
   1.6277600e+04   3.0261219e+06
   1.6317200e+04   3.0375578e+06
   1.6356800e+04   3.0419465e+06
   1.6396400e+04   3.0423252e+06
   1.6436000e+04   3.0451670e+06
   1.6475600e+04   3.0437683e+06
   1.6515200e+04   3.0456794e+06
   1.6554800e+04   3.0467900e+06
   1.6594400e+04   3.0488552e+06
   1.6634000e+04   3.0507771e+06
   1.6673600e+04   3.0517770e+06
   1.6713200e+04   3.0540598e+06
   1.6752800e+04   3.0513933e+06
   1.6792400e+04   3.0620800e+06
   1.6832000e+04   3.0625712e+06
   1.6871600e+04   3.0725585e+06
   1.6911200e+04   3.0741941e+06
   1.6950800e+04   3.0721343e+06
   1.6990400e+04   3.0602878e+06
   1.7030000e+04   3.0612074e+06
   1.7069600e+04   3.0681129e+06
   1.7109200e+04   3.0695301e+06
   1.7148800e+04   3.0709612e+06
   1.7188400e+04   3.0742152e+06
   1.7228000e+04   3.0789857e+06
   1.7267600e+04   3.0771005e+06
   1.7307200e+04   3.0792077e+06
   1.7346800e+04   3.0820245e+06
   1.7386400e+04   3.0844457e+06
   1.7426000e+04   3.0858786e+06
   1.7465600e+04   3.0872901e+06
   1.7505200e+04   3.0857700e+06
   1.7544800e+04   3.0882525e+06
   1.7584400e+04   3.0847158e+06
   1.7624000e+04   3.1048360e+06
   1.7663600e+04   3.1190482e+06
   1.7703200e+04   3.1377813e+06
   1.7742800e+04   3.1059863e+06
   1.7782400e+04   3.1362224e+06
   1.7822000e+04   3.1245688e+06
   1.7861600e+04   3.1090347e+06
   1.7901200e+04   3.1098220e+06
   1.7940800e+04   3.1138921e+06
   1.7980400e+04   3.1063749e+06
   1.8020000e+04   3.1079245e+06
   1.8059600e+04   3.1027735e+06
   1.8099200e+04   3.1039080e+06
   1.8138800e+04   3.1057571e+06
   1.8178400e+04   3.1062711e+06
   1.8218000e+04   3.1068044e+06
   1.8257600e+04   3.1089642e+06
   1.8297200e+04   3.1102945e+06
   1.8336800e+04   3.1105381e+06
   1.8376400e+04   3.1122794e+06
   1.8416000e+04   3.0958850e+06
   1.8455600e+04   3.1020550e+06
   1.8495200e+04   3.1223457e+06
   1.8534800e+04   3.1155186e+06
   1.8574400e+04   3.1164749e+06
   1.8614000e+04   3.1185860e+06
   1.8653600e+04   3.1199921e+06
   1.8693200e+04   3.1203440e+06
   1.8732800e+04   3.1303100e+06
   1.8772400e+04   3.1423724e+06
   1.8812000e+04   3.1331338e+06
   1.8851600e+04   3.1252629e+06
   1.8891200e+04   3.1259511e+06
   1.8930800e+04   3.1240668e+06
   1.8970400e+04   3.1177150e+06
   1.9010000e+04   3.1277577e+06
   1.9049600e+04   3.1285559e+06
   1.9089200e+04   3.1299718e+06
   1.9128800e+04   3.1307741e+06
   1.9168400e+04   3.1310430e+06
   1.9208000e+04   3.1376125e+06
   1.9247600e+04   3.1377874e+06
   1.9287200e+04   3.1356700e+06
   1.9326800e+04   3.1199464e+06
   1.9366400e+04   3.1399464e+06
   1.9406000e+04   3.1415451e+06
   1.9445600e+04   3.1398372e+06
   1.9485200e+04   3.1409018e+06
   1.9524800e+04   3.1398712e+06
   1.9564400e+04   3.1441576e+06
   1.9604000e+04   3.1447677e+06
   1.9643600e+04   3.1334755e+06
   1.9683200e+04   3.1452498e+06
   1.9722800e+04   3.1415868e+06
   1.9762400e+04   3.1470396e+06
   1.9802000e+04   3.1953902e+06
   1.9841600e+04   3.1962464e+06
   1.9881200e+04   3.1483997e+06
   1.9920800e+04   3.1493964e+06
   1.9960400e+04   3.1517247e+06
