Ab initio lattice heat capacity of optical phonons from Sukanyas monolayer DFT
Temperature [K]	C_p [J/m^3K]
2	1.5770638128742576e-09
3	0.00011612266052907216
4	0.03451742218931031
5	1.0884544371456286
6	10.743919833153086
7	53.840905491839294
8	176.98597299529865
9	442.4610412209913
10	920.1937423663949
11	1683.7723601037105
12	2809.036207419016
13	4372.0992713069645
14	6445.707224504666
15	9094.686473080292
16	12371.773411767615
17	16314.765719505209
18	20945.351342744485
19	26269.498413147798
20	32279.029700263127
21	38953.9286204417
22	46264.9628775568
23	54176.30492587949
24	62647.93346031668
25	71637.6937854402
26	81102.96764607854
27	91001.95366775294
28	101294.59085219691
29	111943.17398197413
30	122912.71569646252
31	134171.10912852897
32	145689.14018623435
33	157440.39184762395
34	169401.07554406626
35	181549.8176538461
36	193867.4227593731
37	206336.62983776914
38	218941.87299989394
39	231669.05472098026
40	244505.33662329733
41	257438.95066599725
42	270459.0319551298
43	283555.4732014402
44	296718.8000304477
45	309940.0658079226
46	323210.7643171077
47	336522.75845715986
48	349868.2230821708
49	363239.6001316827
50	376629.56429143983
51	390030.9975457358
52	403436.9711263545
53	416840.7335152646
54	430235.7033125183
55	443615.465929848
56	456973.7732126536
57	470304.54522406636
58	483601.8735451273
59	496860.0255528209
60	510073.4492340913
61	523236.7781783829
62	536344.8364648686
63	549392.6432242739
64	562375.4167094701
65	575288.5777549425
66	588127.7525439312
67	600888.7746340036
68	613567.686217719
69	626160.7386166569
70	638664.3920233217
71	651075.3145189947
72	663390.3804048329
73	675606.6678914138
74	687721.4561962592
75	699732.2221022195
76	711636.6360310646
77	723432.5576870097
78	735118.031324266
79	746691.2806908123
80	758150.7036994519
81	769494.8668736622
82	780722.4996138592
83	791832.4883261948
84	802823.8704529654
85	813695.8284407537
86	824447.6836792098
87	835078.8904399166
88	845589.0298425561
89	855977.8038718858
90	866245.029466923
91	876390.6327007569
92	886414.6430671756
93	896317.1878880641
94	906098.4868530317
95	915758.8467015444
96	925298.6560551845
97	934718.380406782
98	944018.557271152
99	953199.7915010748
100	962262.7507713116
101	971208.161231234
102	980036.8033274284
103	988749.5077949606
104	997347.1518167154
105	1005830.6553488553
106	1014200.977609555
107	1022459.11372901
108	1030606.0915567009
109	1038642.9686224904
110	1046570.8292480551
111	1054390.7818039525
112	1062103.956108269
113	1069711.5009627237
114	1077214.5818211203
115	1084614.3785858515
116	1091912.083528079
117	1099108.8993263156
118	1106206.0372194396
119	1113204.7152691418
120	1120106.1567273068
121	1126911.588504436
122	1133622.239733452
123	1140239.3404264098
124	1146764.1202178681
125	1153197.8071929784
126	1159541.6267943878
127	1165796.800805421
128	1171964.54640534
129	1178046.0752931847
130	1184042.592876125
131	1189955.29752052
132	1195785.379860413
133	1201534.022162071
134	1207202.3977405648
135	1212791.6704261876
136	1218302.9940774203
137	1223737.512138168
138	1229096.3572367667
139	1234380.650824313
140	1239591.5028496522
141	1244730.0114698044
142	1249797.262792611
143	1254794.3306503475
144	1259722.2764025205
145	1264582.148765234
146	1269374.983666277
147	1274101.8041243665
148	1278763.6201497205
149	1283361.4286663793
150	1287896.213453512
151	1292368.9451047159
152	1296780.5810047323
153	1301132.0653212292
154	1305424.3290116554
155	1309658.2898434598
156	1313834.8524270062
157	1317954.9082598393
158	1322019.335782236
159	1326029.000441914
160	1329984.7547687236
161	1333887.4384570592
162	1337737.8784562459
163	1341536.8890680843
164	1345285.2720504971
165	1348983.8167274354
166	1352633.3001035978
167	1356234.4869842688
168	1359788.1300996311
169	1363294.970232195
170	1366755.7363485745
171	1370171.1457336885
172	1373541.9041277147
173	1376868.705865657
174	1380152.234018399
175	1383393.1605359681
176	1386592.1463919505
177	1389749.841728753
178	1392866.886004504
179	1395943.90813981
180	1398981.526665442
181	1401980.3498700722
182	1404940.9759486057
183	1407863.9931489886
184	1410749.979920771
185	1413599.5050615838
186	1416413.1278637082
187	1419191.3982604134
188	1421934.856970502
189	1424644.035643015
190	1427319.4569999222
191	1429961.6349791097
192	1432571.0748744935
193	1435148.2734765504
194	1437693.7192101341
195	1440207.892272541
196	1442691.2647684321
197	1445144.3008443026
198	1447567.4568217802
199	1449961.1813283763
200	1452325.9154274613
201	1454662.0927463097
202	1456970.1396025154
203	1459250.4751290726
204	1461503.511397535
205	1463729.6535392452
206	1465929.2998655117
207	1468102.8419858282
208	1470250.6649238882
209	1472373.1472329067
210	1474470.6611080735
211	1476543.5724985981
212	1478592.2412166304
213	1480617.0210458308
214	1482618.2598471376
215	1484596.2996637493
216	1486551.4768236799
217	1488484.1220414257
218	1490394.5605171307
219	1492283.1120346142
220	1494150.0910579995
221	1495995.8068262364
222	1497820.563446098
223	1499624.6599837258
224	1501408.3905549976
225	1503172.0444133654
226	1504915.906037238
227	1506640.2552150395
228	1508345.3671292905
229	1510031.5124389634
230	1511698.9573601994
231	1513347.9637466506
232	1514978.789166217
233	1516591.6869791015
234	1518186.9064124739
235	1519764.6926342524
236	1521325.2868263023
237	1522868.9262556233
238	1524395.8443437284
239	1525906.2707363388
240	1527400.431370337
241	1528878.5485398257
242	1530340.8409617965
243	1531787.5238393673
244	1533218.8089247798
245	1534634.904580757
246	1536036.0158409565
247	1537422.3444690225
248	1538794.0890170177
249	1540151.444882243
250	1541494.6043632538
251	1542823.7567151156
252	1544139.0882027727
253	1545440.7821544874
254	1546729.0190135294
255	1548003.97638922
256	1549265.8291067483
257	1550514.7492565212
258	1551750.9062419895
259	1552974.4668274394
260	1554185.5951835304
261	1555384.4529335725
262	1556571.1991975578
263	1557745.990636591
264	1558908.9814950835
265	1560060.3236435957
266	1561200.166619908
267	1562328.6576693333
268	1563445.9417856769
269	1564552.1617486011
270	1565647.4581635369
271	1566731.9694982627
272	1567805.8321207194
273	1568869.1803343482
274	1569922.146414341
275	1570964.8606420336
276	1571997.4513399643
277	1573020.0449040656
278	1574032.7658380023
279	1575035.7367851543
280	1576029.0785593449
281	1577012.9101779563
282	1577987.3488906247
283	1578952.5102103224
284	1579908.507942405
285	1580855.454213654
286	1581793.4595007054
287	1582722.6326573924
288	1583643.0809430026
289	1584554.910048384
290	1585458.2241216875
291	1586353.1257962666
292	1587239.7162134876
293	1588118.095049458
294	1588988.3605386247
295	1589850.6094978987
296	1590704.9373503546
297	1591551.4381482163
298	1592390.2045953404
299	1593221.328069681
300	1594044.8986453994
301	1594861.005113824
302	1595669.7350046914
303	1596471.1746071912
304	1597265.4089894409
305	1598052.5220196145
306	1598832.5963840282
307	1599605.7136078104
308	1600371.9540727597
309	1601131.3970364588
310	1601884.1206502353
311	1602630.2019764727
312	1603369.7170076733
313	1604102.7406819193
314	1604829.3469009078
315	1605549.6085462668
316	1606263.5974957366
317	1606971.3846392892
318	1607673.0398951725
319	1608368.6322246953
320	1609058.2296478802
321	1609741.8992584492
322	1610419.7072382276
323	1611091.7188715956
324	1611757.9985596195
325	1612418.6098339437
326	1613073.615370546
327	1613723.0770028103
328	1614367.0557351129
329	1615005.6117553478
330	1615638.8044482707
331	1616266.6924068055
332	1616889.333445967
333	1617506.7846129192
334	1618119.1022008178
335	1618726.3417589264
336	1619328.5581050094
337	1619925.805335907
338	1620518.136838859
339	1621105.605302655
340	1621688.2627279847
341	1622266.1604373124
342	1622839.3490863943
343	1623407.8786736748
344	1623971.79855045
345	1624531.1574299545
346	1625086.0033984836
347	1625636.3839233166
348	1626182.3458628692
349	1626723.935475103
350	1627261.1984278671
351	1627794.1798058143
352	1628322.9241209282
353	1628847.4753197036
354	1629367.8767922395
355	1629884.171380026
356	1630396.4013844861
357	1630904.6085751683
358	1631408.8341961766
359	1631909.1189759425
360	1632405.503132861
361	1632898.026384203
362	1633386.7279526924
363	1633871.6465736404
364	1634352.8205025133
365	1634830.287521619
366	1635304.0849469728
367	1635774.2496349658
368	1636240.8179892772
369	1636703.8259670082
370	1637163.3090855542
371	1637619.3024282157
372	1638071.84065185
373	1638520.957990161
374	1638966.6882637755
375	1639409.0648821485
376	1639848.1208521049
377	1640283.8887819322
378	1640716.4008884423
379	1641145.6890010657
380	1641571.7845682707
381	1641994.7186625982
382	1642414.5219858938
383	1642831.224874665
384	1643244.8573052676
385	1643655.448898125
386	1644063.0289243218
387	1644467.6263082784
388	1644869.2696349674
389	1645267.9871524996
390	1645663.806777827
391	1646056.7561015277
392	1646446.8623913913
393	1646834.152597922
394	1647218.6533575302
395	1647600.390998234
396	1647979.391542118
397	1648355.680711433
398	1648729.2839306802
399	1649100.2263328526
400	1649468.532760955
401	1649834.2277745106
402	1650197.3356509143
403	1650557.8803906396
404	1650915.8857214279
405	1651271.3751003393
406	1651624.3717185378
407	1651974.8985047024
408	1652322.978128218
409	1652668.6330029974
410	1653011.8852902777
411	1653352.7569029264
412	1653691.2695077115
413	1654027.4445291376
414	1654361.303152446
415	1654692.8663275025
416	1655022.1547696872
417	1655349.1889665234
418	1655673.9891766133
419	1655996.5754364175
420	1656316.9675601365
421	1656635.1851439602
422	1656951.247569923
423	1657265.174006267
424	1657576.983411688
425	1657886.69453862
426	1658194.3259344124
427	1658499.8959446708
428	1658803.422715922
429	1659104.9241985795
430	1659404.418148443
431	1659701.9221290064
432	1659997.453516876
433	1660291.0294990547
434	1660582.6670797197
435	1660872.383081369
436	1661160.1941456627
437	1661446.116736927
438	1661730.1671449596
439	1662012.3614858286
440	1662292.7157052625
441	1662571.245579588
442	1662847.96671864
443	1663122.8945685248
444	1663396.0444116103
445	1663667.4313710728
446	1663937.070409823
447	1664204.9763366561
448	1664471.163803624
449	1664735.647310839
450	1664998.4412083798
451	1665259.559695797
452	1665519.0168270804
453	1665776.826510515
454	1666033.002509307
455	1666287.5584473563
456	1666540.5078067915
457	1666791.8639315392
458	1667041.6400301056
459	1667289.8491740886
460	1667536.5043029697
461	1667781.6182241137
462	1668025.203615105
463	1668267.2730236193
464	1668507.8388719982
465	1668746.913455817
466	1668984.508946577
467	1669220.637394325
468	1669455.310726695
469	1669688.5407519666
470	1669920.339160929
471	1670150.7175267944
472	1670379.6873073098
473	1670607.2598466561
474	1670833.446375283
475	1671058.2580135115
476	1671281.7057705212
477	1671503.8005468224
478	1671724.5531359678
479	1671943.9742243723
480	1672162.074393881
481	1672378.8641227512
482	1672594.3537859246
483	1672808.5536574062
484	1673021.4739109008
485	1673233.1246206132
486	1673443.5157634402
487	1673652.657218652
488	1673860.5587707711
489	1674067.2301089142
490	1674272.680828608
491	1674476.9204338645
492	1674679.958336535
493	1674881.8038572962
494	1675082.4662296039
495	1675281.9545969735
496	1675480.2780157914
497	1675677.4454568264
498	1675873.4658047068
499	1676068.3478596527
500	1676262.1003395729
501	1676454.731878486
502	1676646.2510296335
503	1676836.6662651598
504	1677025.9859780474
505	1677214.2184814773
506	1677401.3720116154
507	1677587.4547270085
508	1677772.4747099946
509	1677956.439967482
510	1678139.358431443
511	1678321.237960871
512	1678502.086341707
513	1678681.911286437
514	1678860.7204379675
515	1679038.5213675178
516	1679215.321577559
517	1679391.128499576
518	1679565.9494989365
519	1679739.791872495
520	1679912.662849554
521	1680084.5695955607
522	1680255.51920781
523	1680425.5187215877
524	1680594.5751058976
525	1680762.6952682454
526	1680929.8860525296
527	1681096.154241238
528	1681261.506555743
529	1681425.9496560397
530	1681589.4901433692
531	1681752.1345584719
532	1681913.88938424
533	1682074.7610448506
534	1682234.75590835
535	1682393.8802845075
536	1682552.1404273198
537	1682709.5425360384
538	1682866.0927529905
539	1683021.79716892
540	1683176.661817335
541	1683330.6926814467
542	1683483.8956896658
543	1683636.2767189478
544	1683787.841594915
545	1683938.5960917438
546	1684088.5459326091
547	1684237.69679149
548	1684386.0542924337
549	1684533.624010075
550	1684680.4114716465
551	1684826.4221547935
552	1684971.6614906974
553	1685116.1348638502
554	1685259.847611103
555	1685402.8050241484
556	1685545.0123485255
557	1685686.474785183
558	1685827.1974897909
559	1685967.1855745143
560	1686106.4441067267
561	1686244.9781118385
562	1686382.792571493
563	1686519.892425009
564	1686656.282569877
565	1686791.9678618424
566	1686926.953115892
567	1687061.2431055398
568	1687194.8425645567
569	1687327.7561869612
570	1687459.9886262515
571	1687591.5444976736
572	1687722.428378068
573	1687852.6448044588
574	1687982.1982772993
575	1688111.0932587723
576	1688239.3341743543
577	1688366.9254116558
578	1688493.8713228696
579	1688620.176223776
580	1688745.8443935434
581	1688870.8800780345
582	1688995.2874851394
583	1689119.0707904724
584	1689242.2341338496
585	1689364.7816218147
586	1689486.7173269668
587	1689608.0452881642
588	1689728.7695114953
589	1689848.893970548
590	1689968.4226064817
591	1690087.359326988
592	1690205.708010808
593	1690323.4725021082
594	1690440.6566159967
595	1690557.264135842
596	1690673.2988141656
597	1690788.7643742752
598	1690903.6645082068
599	1691018.0028792208
600	1691131.7831207048
601	1691245.0088368866
602	1691357.6836037138
603	1691469.8109675366
604	1691581.3944472906
605	1691692.4375331157
606	1691802.9436884306
607	1691912.9163480308
608	1692022.3589194806
609	1692131.2747845321
610	1692239.6672977912
611	1692347.5397848026
612	1692454.8955498291
613	1692561.7378661432
614	1692668.069984891
615	1692773.8951296122
616	1692879.2164996972
617	1692984.0372683783
618	1693088.3605852984
619	1693192.1895748512
620	1693295.5273370745
621	1693398.3769482716
622	1693500.7414602558
623	1693602.6239015341
624	1693704.0272775884
625	1693804.954569624
626	1693905.40873656
627	1694005.3927145568
628	1694104.9094166453
629	1694203.961733859
630	1694302.5525350014
631	1694400.6846668993
632	1694498.36095376
633	1694595.584200087
634	1694692.3571869961
635	1694788.6826751733
636	1694884.5634057592
637	1694980.002095495
638	1695075.0014444087
639	1695169.56412995
640	1695263.6928092607
641	1695357.3901198828
642	1695450.6586805712
643	1695543.501087522
644	1695635.9199205553
645	1695727.9177378702
646	1695819.497079628
647	1695910.660466769
648	1696001.410400543
649	1696091.7493651747
650	1696181.6798245995
651	1696271.2042257185
652	1696360.32499651
653	1696449.044547677
654	1696537.36527046
655	1696625.2895404678
656	1696712.819714491
657	1696799.9581321776
658	1696886.7071157
659	1696973.068970542
660	1697059.045984858
661	1697144.6404312165
662	1697229.854563191
663	1697314.690619683
664	1697399.150823447
665	1697483.2373795481
666	1697566.9524778265
667	1697650.2982922392
668	1697733.2769811386
669	1697815.8906862992
670	1697898.1415351934
671	1697980.0316391666
672	1698061.5630934788
673	1698142.7379806917
674	1698223.5583654656
675	1698304.0263003567
676	1698384.143820952
677	1698463.912949243
678	1698543.3356925363
679	1698622.4140441942
680	1698701.149982455
681	1698779.5454726545
682	1698857.6024647267
683	1698935.3228954778
684	1699012.7086883048
685	1699089.7617524152
686	1699166.4839833672
687	1699242.877264022
688	1699318.9434627085
689	1699394.6844360859
690	1699470.1020261094
691	1699545.1980636606
692	1699619.9743650805
693	1699694.432734139
694	1699768.574963369
695	1699842.402831386
696	1699915.918104383
697	1699989.1225369184
698	1700062.0178718201
699	1700134.605837319
700	1700206.8881521681
701	1700278.8665226297
702	1700350.5426423913
703	1700421.9181937964
704	1700492.9948476553
705	1700563.774263114
706	1700634.2580879687
707	1700704.4479586557
708	1700774.3454997607
709	1700843.9523267893
710	1700913.2700404222
711	1700982.3002345948
712	1701051.0444889937
713	1701119.504374306
714	1701187.6814502417
715	1701255.5772652803
716	1701323.1933584507
717	1701390.5312567258
718	1701457.5924778057
719	1701524.3785291014
720	1701590.8909080806
721	1701657.1311009834
722	1701723.1005843154
723	1701788.800826507
724	1701854.2332825977
725	1701919.399401188
726	1701984.300619138
727	1702048.938364743
728	1702113.314055468
729	1702177.4291013158
730	1702241.2849003747
731	1702304.8828432693
732	1702368.2243113662
733	1702431.3106751402
734	1702494.1432976003
735	1702556.7235317505
736	1702619.052723276
737	1702681.13220587
738	1702742.963307547
739	1702804.5473459226
740	1702865.8856300223
741	1702926.9794609472
742	1702987.8301300039
743	1703048.4389215806
744	1703108.8071100558
745	1703168.9359626435
746	1703228.8267378332
747	1703288.4806861244
748	1703347.899049105
749	1703407.0830610031
750	1703466.0339477248
751	1703524.752927337
752	1703583.241210091
753	1703641.4999979748
754	1703699.5304854212
755	1703757.3338590974
756	1703814.9112985502
757	1703872.2639742568
758	1703929.3930512401
759	1703986.2996847522
760	1704042.9850242415
761	1704099.4502119217
762	1704155.6963803326
763	1704211.724658514
764	1704267.536165092
765	1704323.1320124357
766	1704378.5133059395
767	1704433.6811457141
768	1704488.6366214298
769	1704543.3808181318
770	1704597.9148134266
771	1704652.2396787566
772	1704706.3564769563
773	1704760.2662664312
774	1704813.9700967106
775	1704867.469013106
776	1704920.7640515675
777	1704973.856244205
778	1705026.746614226
779	1705079.4361803944
780	1705131.925954009
781	1705184.2169399844
782	1705236.310137664
783	1705288.206539998
784	1705339.9071323606
785	1705391.4128958918
786	1705442.7248048605
787	1705493.8438274588
788	1705544.770925287
789	1705595.5070549906
790	1705646.0531664565
791	1705696.4102048133
792	1705746.5791071788
793	1705796.560807987
794	1705846.356232496
795	1705895.9663044102
796	1705945.391935941
797	1705994.6340404633
798	1706043.6935200002
799	1706092.571274165
800	1706141.2681966955
801	1706189.7851752297
802	1706238.1230917939
803	1706286.2828237773
804	1706334.2652433354
805	1706382.0712159928
806	1706429.7016039018
807	1706477.1572618152
808	1706524.4390414765
809	1706571.5477885825
810	1706618.484341968
811	1706665.2495388107
812	1706711.8442095318
813	1706758.269177732
814	1706804.5252645644
815	1706850.613286655
816	1706896.5340523566
817	1706942.2883695913
818	1706987.8770380497
819	1707033.3008533253
820	1707078.5606076124
821	1707123.657086812
822	1707168.5910730711
823	1707213.363343473
824	1707257.9746712008
825	1707302.4258231886
826	1707346.7175634776
827	1707390.8506513736
828	1707434.825840617
829	1707478.6438808907
830	1707522.3055185573
831	1707565.8114941965
832	1707609.1625441534
833	1707652.3594021809
834	1707695.4027951406
835	1707738.2934471888
836	1707781.0320772831
837	1707823.6194021227
838	1707866.0561316917
839	1707908.342973892
840	1707950.480629994
841	1707992.4698010082
842	1708034.3111795858
843	1708076.0054576024
844	1708117.553321717
845	1708158.9554528962
846	1708200.2125319801
847	1708241.3252327149
848	1708282.2942259295
849	1708323.1201779004
850	1708363.8037535287
851	1708404.3456102721
852	1708444.7464044238
853	1708485.0067880119
854	1708525.1274079706
855	1708565.1089094868
856	1708604.9519325187
857	1708644.6571147065
858	1708684.2250879484
859	1708723.6564830057
860	1708762.951925241
861	1708802.1120369583
862	1708841.1374382593
863	1708880.028743007
864	1708918.786563992
865	1708957.4115084186
866	1708995.9041828276
867	1709034.2651878248
868	1709072.495121528
869	1709110.5945790382
870	1709148.5641507702
871	1709186.4044261142
872	1709224.1159882396
873	1709261.6994200174
874	1709299.1552989555
875	1709336.4841990317
876	1709373.6866942756
877	1709410.7633505298
878	1709447.7147346307
879	1709484.5414079987
880	1709521.2439308353
881	1709557.8228564751
882	1709594.2787408328
883	1709630.6121317567
