Material: cobalt, electronic heat capacity calculated based on spin resolved DFT calculation from Jan Vorberger, sum mino+majo
Temperature [K], c_e [J/(m^3K)]
12.50	4.447843e+03
17.49	8.353743e+03
22.49	9.956775e+03
27.48	1.114657e+04
32.48	1.180961e+04
37.47	1.304698e+04
42.47	1.393001e+04
47.46	1.495041e+04
52.46	1.696340e+04
57.45	1.794363e+04
62.45	1.958244e+04
67.44	2.120723e+04
72.44	2.290326e+04
77.43	2.414541e+04
82.43	2.600097e+04
87.42	2.743407e+04
92.42	2.891155e+04
97.41	3.054156e+04
102.41	3.228146e+04
107.40	3.363786e+04
112.40	3.541189e+04
117.39	3.711963e+04
122.39	3.851541e+04
127.38	4.010072e+04
132.38	4.163723e+04
137.37	4.318950e+04
142.37	4.496874e+04
147.36	4.658857e+04
152.36	4.819905e+04
157.35	4.963973e+04
162.35	5.098618e+04
167.34	5.291638e+04
172.34	5.452944e+04
177.33	5.627141e+04
182.33	5.754348e+04
187.32	5.910611e+04
192.32	6.096330e+04
197.31	6.243973e+04
202.31	6.444271e+04
207.30	6.561759e+04
212.30	6.718480e+04
217.29	6.899398e+04
222.29	7.044857e+04
227.28	7.245798e+04
232.28	7.382288e+04
237.27	7.545281e+04
242.27	7.697404e+04
247.26	7.854818e+04
252.26	8.048226e+04
257.25	8.156410e+04
262.25	8.377578e+04
267.24	8.492091e+04
272.24	8.682546e+04
277.23	8.857783e+04
282.23	8.973373e+04
287.22	9.196372e+04
292.22	9.306779e+04
297.21	9.487255e+04
302.21	9.647396e+04
307.20	9.840147e+04
312.20	9.951558e+04
317.19	1.014970e+05
322.19	1.030495e+05
327.18	1.047893e+05
332.18	1.063276e+05
337.17	1.077524e+05
342.17	1.094367e+05
347.16	1.111559e+05
352.16	1.129885e+05
357.15	1.143973e+05
362.15	1.158413e+05
367.14	1.177799e+05
372.14	1.192157e+05
377.13	1.213013e+05
382.13	1.224228e+05
387.12	1.240364e+05
392.12	1.261412e+05
397.11	1.274344e+05
402.11	1.290604e+05
407.10	1.304876e+05
412.10	1.326271e+05
417.09	1.336442e+05
422.09	1.358306e+05
427.08	1.372733e+05
432.08	1.387347e+05
437.07	1.405956e+05
442.07	1.424715e+05
447.06	1.435952e+05
452.06	1.454950e+05
457.05	1.470208e+05
462.05	1.488582e+05
467.04	1.504730e+05
472.04	1.520121e+05
477.03	1.534731e+05
482.03	1.554710e+05
487.02	1.570033e+05
492.02	1.588342e+05
497.01	1.600456e+05
502.01	1.623178e+05
507.00	1.634264e+05
512.00	1.652862e+05
516.99	1.671283e+05
521.99	1.685668e+05
526.98	1.703666e+05
531.98	1.718364e+05
536.97	1.735853e+05
541.97	1.753057e+05
546.96	1.770733e+05
551.96	1.787301e+05
556.95	1.803522e+05
561.95	1.820152e+05
566.94	1.840237e+05
571.94	1.851449e+05
576.93	1.875320e+05
581.93	1.885658e+05
586.92	1.907840e+05
591.92	1.921852e+05
596.91	1.939206e+05
601.91	1.956822e+05
606.90	1.976968e+05
611.90	1.989648e+05
616.89	2.008672e+05
621.89	2.028670e+05
626.88	2.042660e+05
631.88	2.060659e+05
636.87	2.078806e+05
641.87	2.095526e+05
646.86	2.116215e+05
651.86	2.132376e+05
656.85	2.147846e+05
661.85	2.166466e+05
666.84	2.184369e+05
671.84	2.203101e+05
676.83	2.219533e+05
681.83	2.236768e+05
686.82	2.256314e+05
691.82	2.275863e+05
696.81	2.290766e+05
701.81	2.312585e+05
706.80	2.326657e+05
711.80	2.347626e+05
716.79	2.363905e+05
721.79	2.383985e+05
726.78	2.403996e+05
731.78	2.417729e+05
736.77	2.439878e+05
741.77	2.458071e+05
746.76	2.478465e+05
751.76	2.494885e+05
756.75	2.510407e+05
761.75	2.534314e+05
766.74	2.551886e+05
771.74	2.570880e+05
776.73	2.592038e+05
781.73	2.608399e+05
786.72	2.629253e+05
791.72	2.645298e+05
796.71	2.668137e+05
801.71	2.686938e+05
806.70	2.705564e+05
811.70	2.727105e+05
816.69	2.743811e+05
821.69	2.764206e+05
826.68	2.785194e+05
831.68	2.808307e+05
836.67	2.823475e+05
841.67	2.846200e+05
846.66	2.864852e+05
851.66	2.885620e+05
856.65	2.903872e+05
861.65	2.928120e+05
866.64	2.944406e+05
871.64	2.969032e+05
876.63	2.988012e+05
881.63	3.011454e+05
886.62	3.026928e+05
891.62	3.052288e+05
896.61	3.071242e+05
901.61	3.092319e+05
906.60	3.113980e+05
911.60	3.138551e+05
916.59	3.155153e+05
921.59	3.180122e+05
926.58	3.199448e+05
931.58	3.220152e+05
936.57	3.243000e+05
941.57	3.266451e+05
946.56	3.289727e+05
951.56	3.308155e+05
956.55	3.330308e+05
961.55	3.356978e+05
966.54	3.374914e+05
971.54	3.396592e+05
976.53	3.422805e+05
981.53	3.444193e+05
986.52	3.469345e+05
991.52	3.486563e+05
996.51	3.515363e+05
1001.51	3.533121e+05
1006.50	3.561695e+05
1011.50	3.582357e+05
1016.49	3.602920e+05
1021.49	3.631994e+05
1026.48	3.651602e+05
1031.48	3.676616e+05
1036.47	3.697654e+05
1041.47	3.725673e+05
1046.46	3.745821e+05
1051.46	3.774543e+05
1056.45	3.795409e+05
1061.45	3.819383e+05
1066.44	3.848051e+05
1071.44	3.868885e+05
1076.43	3.893647e+05
1081.43	3.917642e+05
1086.42	3.947165e+05
1091.42	3.967313e+05
1096.41	3.993011e+05
1101.41	4.017985e+05
1106.40	4.046960e+05
1111.40	4.068173e+05
1116.39	4.094200e+05
1121.39	4.120339e+05
1126.38	4.145812e+05
1131.38	4.172211e+05
1136.37	4.197970e+05
1141.37	4.224681e+05
1146.36	4.251567e+05
1151.36	4.273914e+05
1156.35	4.301981e+05
1161.35	4.329471e+05
1166.34	4.356398e+05
1171.34	4.381213e+05
1176.33	4.408638e+05
1181.33	4.437921e+05
1186.32	4.462752e+05
1191.32	4.487881e+05
1196.31	4.517268e+05
1201.31	4.543037e+05
1206.30	4.569148e+05
1211.30	4.599565e+05
1216.29	4.627204e+05
1221.29	4.653637e+05
1226.28	4.681269e+05
1231.28	4.710118e+05
1236.27	4.737805e+05
1241.27	4.762783e+05
1246.26	4.796142e+05
1251.26	4.822066e+05
1256.25	4.847684e+05
1261.25	4.877776e+05
1266.24	4.905235e+05
1271.24	4.937203e+05
1276.23	4.964165e+05
1281.23	4.992504e+05
1286.22	5.021437e+05
1291.22	5.050979e+05
1296.21	5.080343e+05
1301.21	5.107182e+05
1306.20	5.141821e+05
1311.20	5.164406e+05
1316.19	5.196436e+05
1321.19	5.228371e+05
1326.18	5.257860e+05
1331.18	5.282491e+05
1336.17	5.316649e+05
1341.17	5.346792e+05
1346.16	5.374549e+05
1351.16	5.405478e+05
1356.15	5.433241e+05
1361.15	5.465831e+05
1366.14	5.495288e+05
1371.14	5.528797e+05
1376.13	5.555208e+05
1381.13	5.585702e+05
1386.12	5.617932e+05
1391.12	5.649470e+05
1396.11	5.677961e+05
1401.11	5.711422e+05
1406.10	5.741050e+05
1411.10	5.771678e+05
1416.09	5.802505e+05
1421.09	5.834364e+05
1426.08	5.863265e+05
1431.08	5.898785e+05
1436.07	5.924997e+05
1441.07	5.959504e+05
1446.06	5.993480e+05
1451.06	6.021375e+05
1456.05	6.052776e+05
1461.05	6.086159e+05
1466.04	6.115043e+05
1471.04	6.149133e+05
1476.03	6.179575e+05
1481.03	6.214428e+05
1486.02	6.242460e+05
1491.02	6.278960e+05
1496.01	6.307833e+05
1501.01	6.342008e+05
1506.00	6.372606e+05
1511.00	6.402838e+05
1515.99	6.439252e+05
1520.99	6.467255e+05
1525.98	6.504673e+05
1530.98	6.534534e+05
1535.97	6.568128e+05
1540.97	6.599899e+05
1545.96	6.630547e+05
1550.96	6.663437e+05
1555.95	6.700958e+05
1560.95	6.730132e+05
1565.94	6.763956e+05
1570.94	6.795182e+05
1575.93	6.831087e+05
1580.93	6.858672e+05
1585.92	6.896704e+05
1590.92	6.929646e+05
1595.91	6.960040e+05
1600.91	6.994322e+05
1605.90	7.026076e+05
1610.90	7.062592e+05
1615.89	7.091682e+05
1620.89	7.128772e+05
1625.88	7.159300e+05
1630.88	7.193779e+05
1635.87	7.225781e+05
1640.87	7.261756e+05
1645.86	7.294416e+05
1650.86	7.327844e+05
1655.85	7.362049e+05
1660.85	7.392096e+05
1665.84	7.428738e+05
1670.84	7.459516e+05
1675.83	7.496909e+05
1680.83	7.530171e+05
1685.82	7.560162e+05
1690.82	7.598301e+05
1695.81	7.629956e+05
1700.81	7.661585e+05
1705.80	7.698160e+05
1710.80	7.731493e+05
1715.79	7.764818e+05
1720.79	7.795775e+05
1725.78	7.834072e+05
1730.78	7.865909e+05
1735.77	7.902737e+05
1740.77	7.931362e+05
1745.76	7.968224e+05
1750.76	8.002750e+05
1755.75	8.037304e+05
1760.75	8.068647e+05
1765.74	8.105020e+05
1770.74	8.137311e+05
1775.73	8.169637e+05
1780.73	8.208776e+05
1785.72	8.237945e+05
1790.72	8.273052e+05
1795.71	8.309095e+05
1800.71	8.340172e+05
1805.70	8.378095e+05
1810.70	8.410165e+05
1815.69	8.440819e+05
1820.69	8.478917e+05
1825.68	8.513828e+05
1830.68	8.544656e+05
1835.67	8.581473e+05
1840.67	8.614211e+05
1845.66	8.647008e+05
1850.66	8.685813e+05
1855.65	8.714585e+05
1860.65	8.750266e+05
1865.64	8.786013e+05
1870.64	8.817668e+05
1875.63	8.853542e+05
1880.63	8.887127e+05
1885.62	8.920774e+05
1890.62	8.954482e+05
1895.61	8.990066e+05
1900.61	9.023895e+05
1905.60	9.056339e+05
1910.60	9.092101e+05
1915.59	9.125571e+05
1920.59	9.158183e+05
1925.58	9.195938e+05
1930.58	9.225389e+05
1935.57	9.265080e+05
1940.57	9.296460e+05
1945.56	9.326965e+05
1950.56	9.363533e+05
1955.55	9.396879e+05
1960.55	9.433534e+05
1965.54	9.466957e+05
1970.54	9.497144e+05
1975.53	9.535750e+05
1980.53	9.566921e+05
1985.52	9.601387e+05
1990.52	9.634458e+05
1995.51	9.669895e+05
2000.51	9.703935e+05
2005.50	9.736127e+05
2010.50	9.774400e+05
2015.49	9.804263e+05
2020.49	9.838337e+05
2025.48	9.873346e+05
2030.48	9.905072e+05
2035.47	9.941007e+05
2040.47	9.973651e+05
2045.46	1.000534e+06
2050.46	1.004311e+06
2055.45	1.007663e+06
2060.45	1.010590e+06
2065.44	1.014548e+06
2070.44	1.017468e+06
2075.43	1.021090e+06
2080.43	1.024095e+06
2085.42	1.027803e+06
2090.42	1.030987e+06
2095.41	1.034164e+06
2100.41	1.037950e+06
2105.40	1.041305e+06
2110.40	1.044132e+06
2115.39	1.048087e+06
2120.39	1.051089e+06
2125.38	1.054507e+06
2130.38	1.057585e+06
2135.37	1.061272e+06
2140.37	1.064330e+06
2145.36	1.067995e+06
2150.36	1.071223e+06
2155.35	1.074535e+06
2160.35	1.077738e+06
2165.34	1.080694e+06
2170.34	1.084587e+06
2175.33	1.087943e+06
2180.33	1.090953e+06
2185.32	1.094375e+06
2190.32	1.097548e+06
2195.31	1.101035e+06
2200.31	1.104175e+06
2205.30	1.107725e+06
2210.30	1.110596e+06
2215.29	1.114206e+06
2220.29	1.117565e+06
2225.28	1.120708e+06
2230.28	1.123696e+06
2235.27	1.127521e+06
2240.27	1.130367e+06
2245.26	1.133817e+06
2250.26	1.137343e+06
2255.25	1.140218e+06
2260.25	1.143796e+06
2265.24	1.146918e+06
2270.24	1.150015e+06
2275.23	1.153086e+06
2280.23	1.156760e+06
2285.22	1.159976e+06
2290.22	1.163065e+06
2295.21	1.166423e+06
2300.21	1.169654e+06
2305.20	1.172954e+06
2310.20	1.175792e+06
2315.19	1.179132e+06
2320.19	1.182540e+06
2325.18	1.185816e+06
2330.18	1.188928e+06
2335.17	1.192238e+06
2340.17	1.195282e+06
2345.16	1.198726e+06
2350.16	1.201801e+06
2355.15	1.204840e+06
2360.15	1.207944e+06
2365.14	1.211546e+06
2370.14	1.214242e+06
2375.13	1.217769e+06
2380.13	1.220924e+06
2385.12	1.224140e+06
2390.12	1.226881e+06
2395.11	1.230554e+06
2400.11	1.233315e+06
2405.10	1.237007e+06
2410.10	1.239451e+06
2415.09	1.243159e+06
2420.09	1.245952e+06
2425.08	1.249341e+06
2430.08	1.252685e+06
2435.07	1.255547e+06
2440.07	1.258465e+06
2445.06	1.261876e+06
2450.06	1.264803e+06
2455.05	1.268221e+06
2460.05	1.270716e+06
2465.04	1.274578e+06
2470.04	1.277179e+06
2475.03	1.280607e+06
2480.03	1.283209e+06
2485.02	1.286638e+06
2490.02	1.289782e+06
2495.01	1.292770e+06
2500.01	1.295808e+06
2505.00	1.298896e+06
2509.99	1.302474e+06
2514.99	1.304676e+06
2519.98	1.308143e+06
2524.98	1.311322e+06
2529.97	1.314444e+06
2534.97	1.317067e+06
2539.96	1.320282e+06
2544.96	1.323439e+06
2549.95	1.326536e+06
2554.95	1.329342e+06
2559.94	1.332424e+06
2564.94	1.335655e+06
2569.93	1.338277e+06
2574.93	1.341595e+06
2579.92	1.344303e+06
2584.92	1.347495e+06
2589.91	1.350729e+06
2594.91	1.353456e+06
2599.90	1.356667e+06
2604.90	1.359474e+06
2609.89	1.362216e+06
2614.89	1.365440e+06
2619.88	1.368704e+06
2624.88	1.371012e+06
2629.87	1.374690e+06
2634.87	1.377073e+06
2639.86	1.380276e+06
2644.86	1.383070e+06
2649.85	1.386346e+06
2654.85	1.388768e+06
2659.84	1.392347e+06
2664.84	1.394839e+06
2669.83	1.397934e+06
2674.83	1.400387e+06
2679.82	1.404105e+06
2684.82	1.406409e+06
2689.81	1.409640e+06
2694.81	1.412117e+06
2699.80	1.415304e+06
2704.80	1.418523e+06
2709.79	1.420879e+06
2714.79	1.423713e+06
2719.78	1.427025e+06
2724.78	1.429702e+06
2729.77	1.432627e+06
2734.77	1.435363e+06
2739.76	1.438128e+06
2744.76	1.441370e+06
2749.75	1.443742e+06
2754.75	1.447040e+06
2759.74	1.449808e+06
2764.74	1.452493e+06
2769.73	1.455313e+06
2774.73	1.458051e+06
2779.72	1.460923e+06
2784.72	1.463602e+06
2789.71	1.466866e+06
2794.71	1.469144e+06
2799.70	1.472347e+06
2804.70	1.475124e+06
2809.69	1.477362e+06
2814.69	1.480637e+06
2819.68	1.483262e+06
2824.68	1.486020e+06
2829.67	1.489253e+06
2834.67	1.491493e+06
2839.66	1.494658e+06
2844.66	1.496829e+06
2849.65	1.500036e+06
2854.65	1.502700e+06
2859.64	1.505385e+06
2864.64	1.508089e+06
2869.63	1.510812e+06
2874.63	1.513331e+06
2879.62	1.516546e+06
2884.62	1.519103e+06
2889.61	1.521335e+06
2894.61	1.524493e+06
2899.60	1.527445e+06
2904.60	1.529617e+06
2909.59	1.532715e+06
2914.59	1.534920e+06
2919.58	1.537827e+06
2924.58	1.540519e+06
2929.57	1.543457e+06
2934.57	1.545612e+06
2939.56	1.548580e+06
2944.56	1.551107e+06
2949.55	1.554105e+06
2954.55	1.556661e+06
2959.54	1.558661e+06
2964.54	1.562044e+06
2969.53	1.564184e+06
2974.53	1.567023e+06
2979.52	1.569532e+06
2984.52	1.572510e+06
2989.51	1.574815e+06
2994.51	1.577360e+06
2999.50	1.580261e+06
3004.50	1.582601e+06
3009.49	1.585409e+06
3014.49	1.587427e+06
3019.48	1.590715e+06
3024.48	1.593097e+06
3029.47	1.595375e+06
3034.47	1.598235e+06
3039.46	1.600532e+06
3044.46	1.603296e+06
3049.45	1.605611e+06
3054.45	1.608393e+06
3059.44	1.611184e+06
3064.44	1.613409e+06
3069.43	1.615641e+06
3074.43	1.618341e+06
3079.42	1.620934e+06
3084.42	1.623764e+06
3089.41	1.625910e+06
3094.41	1.628524e+06
3099.40	1.631144e+06
3104.40	1.633425e+06
3109.39	1.635942e+06
3114.39	1.638580e+06
3119.38	1.641109e+06
3124.38	1.643180e+06
3129.37	1.645835e+06
3134.37	1.648379e+06
3139.36	1.650812e+06
3144.36	1.653365e+06
3149.35	1.655807e+06
3154.35	1.657906e+06
3159.34	1.660818e+06
3164.34	1.663272e+06
3169.33	1.665265e+06
3174.33	1.668072e+06
3179.32	1.670072e+06
3184.32	1.673002e+06
3189.31	1.674773e+06
3194.31	1.677708e+06
3199.30	1.680065e+06
3204.30	1.682307e+06
3209.29	1.684668e+06
3214.29	1.687496e+06
3219.28	1.689160e+06
3224.28	1.692109e+06
3229.27	1.694241e+06
3234.27	1.696492e+06
3239.26	1.699209e+06
3244.26	1.701343e+06
3249.25	1.703596e+06
3254.25	1.706197e+06
3259.24	1.708450e+06
3264.24	1.710467e+06
3269.23	1.713187e+06
3274.23	1.715203e+06
3279.22	1.717804e+06
3284.22	1.719937e+06
3289.21	1.722418e+06
3294.21	1.724899e+06
3299.20	1.726562e+06
3304.20	1.729389e+06
3309.19	1.731517e+06
3314.19	1.733873e+06
3319.18	1.736347e+06
3324.18	1.738232e+06
3329.17	1.740702e+06
3334.17	1.743051e+06
3339.16	1.744929e+06
3344.16	1.747861e+06
3349.15	1.749615e+06
3354.15	1.751954e+06
3359.14	1.754171e+06
3364.14	1.756624e+06
3369.13	1.758245e+06
3374.13	1.761042e+06
3379.12	1.763366e+06
3384.12	1.765447e+06
3389.11	1.767174e+06
3394.11	1.769957e+06
3399.10	1.772027e+06
3404.10	1.774092e+06
3409.09	1.776744e+06
3414.09	1.778450e+06
3419.08	1.780974e+06
3424.08	1.783022e+06
3429.07	1.785186e+06
3434.07	1.787104e+06
3439.06	1.789609e+06
3444.06	1.791638e+06
3449.05	1.793662e+06
3454.05	1.796031e+06
3459.04	1.798517e+06
3464.04	1.799932e+06
3469.03	1.802407e+06
3474.03	1.804634e+06
3479.02	1.806626e+06
3484.02	1.808963e+06
3489.01	1.811173e+06
3494.01	1.813147e+06
3499.00	1.814872e+06
3504.00	1.817659e+06
3508.99	1.819371e+06
3513.99	1.821199e+06
3518.98	1.823845e+06
3523.98	1.825538e+06
3528.97	1.827698e+06
3533.97	1.829851e+06
3538.96	1.832120e+06
3543.96	1.834137e+06
3548.95	1.835796e+06
3553.95	1.838396e+06
3558.94	1.839918e+06
3563.94	1.842504e+06
3568.93	1.844486e+06
3573.93	1.845986e+06
3578.92	1.848551e+06
3583.92	1.850510e+06
3588.91	1.852462e+06
3593.91	1.854407e+06
3598.90	1.856819e+06
3603.90	1.858625e+06
3608.89	1.860193e+06
3613.89	1.862935e+06
3618.88	1.864364e+06
3623.88	1.866614e+06
3628.87	1.868379e+06
3633.87	1.870736e+06
3638.86	1.872609e+06
3643.86	1.874702e+06
3648.85	1.876435e+06
3653.85	1.878759e+06
3658.84	1.880350e+06
3663.84	1.882658e+06
3668.83	1.884232e+06
3673.83	1.886398e+06
3678.82	1.888432e+06
3683.82	1.890227e+06
3688.81	1.892119e+06
3693.81	1.894250e+06
3698.80	1.896373e+06
3703.80	1.897760e+06
3708.79	1.899864e+06
3713.79	1.901835e+06
3718.78	1.903922e+06
3723.78	1.905750e+06
3728.77	1.907693e+06
3733.77	1.909628e+06
3738.76	1.911552e+06
3743.76	1.913343e+06
3748.75	1.915249e+06
3753.75	1.917146e+06
3758.74	1.918908e+06
3763.74	1.921264e+06
3768.73	1.922528e+06
3773.73	1.924866e+06
3778.72	1.926463e+06
3783.72	1.928302e+06
3788.71	1.930611e+06
3793.71	1.932180e+06
3798.70	1.933864e+06
3803.70	1.936018e+06
3808.69	1.937682e+06
3813.69	1.939336e+06
3818.68	1.941461e+06
3823.68	1.942969e+06
3828.67	1.945073e+06
3833.67	1.947168e+06
3838.66	1.948646e+06
3843.66	1.950239e+06
3848.65	1.952659e+06
3853.65	1.954106e+06
3858.64	1.955668e+06
3863.64	1.958058e+06
3868.63	1.959473e+06
3873.63	1.961360e+06
3878.62	1.962755e+06
3883.62	1.965230e+06
3888.61	1.966477e+06
3893.61	1.968323e+06
3898.60	1.970640e+06
3903.60	1.971983e+06
3908.59	1.973797e+06
3913.59	1.975474e+06
3918.58	1.977267e+06
3923.58	1.978922e+06
3928.57	1.980694e+06
3933.57	1.982939e+06
3938.56	1.984080e+06
3943.56	1.986176e+06
3948.55	1.987422e+06
3953.55	1.989497e+06
3958.54	1.991562e+06
3963.54	1.992648e+06
3968.53	1.994819e+06
3973.53	1.996368e+06
3978.52	1.998262e+06
3983.52	1.999917e+06
3988.51	2.001305e+06
3993.51	2.003423e+06
3998.50	2.004790e+06
4003.50	2.006758e+06
4008.49	2.008231e+06
4013.49	2.010049e+06
4018.48	2.011500e+06
4023.48	2.013425e+06
4028.47	2.014727e+06
4033.47	2.017115e+06
4038.46	2.018038e+06
4043.46	2.020148e+06
4048.45	2.021533e+06
4053.45	2.023394e+06
4058.44	2.025114e+06
4063.44	2.026824e+06
4068.43	2.028037e+06
4073.43	2.030211e+06
4078.42	2.031531e+06
4083.42	2.033068e+06
4088.41	2.034852e+06
4093.41	2.036497e+06
4098.40	2.038001e+06
4103.40	2.039752e+06
4108.39	2.041235e+06
4113.39	2.043321e+06
4118.38	2.044424e+06
4123.38	2.046003e+06
4128.37	2.048057e+06
4133.37	2.049484e+06
4138.36	2.051030e+06
4143.36	2.052435e+06
4148.35	2.053959e+06
4153.35	2.055829e+06
4158.34	2.057331e+06
4163.34	2.058822e+06
4168.33	2.060659e+06
4173.33	2.061999e+06
4178.32	2.063327e+06
4183.32	2.065261e+06
4188.31	2.067055e+06
4193.31	2.067993e+06
4198.30	2.070123e+06
4203.30	2.071526e+06
4208.29	2.072658e+06
4213.29	2.074528e+06
4218.28	2.076256e+06
4223.28	2.077486e+06
4228.27	2.079192e+06
4233.27	2.080400e+06
4238.26	2.082443e+06
4243.26	2.083759e+06
4248.25	2.084803e+06
4253.25	2.087075e+06
4258.24	2.088097e+06
4263.24	2.090086e+06
4268.23	2.091348e+06
4273.23	2.092337e+06
4278.22	2.094424e+06
4283.22	2.095881e+06
4288.21	2.097458e+06
4293.21	2.098535e+06
4298.20	2.100448e+06
4303.20	2.101862e+06
4308.19	2.102906e+06
4313.19	2.104787e+06
4318.18	2.106299e+06
4323.18	2.107670e+06
4328.17	2.109160e+06
4333.17	2.110509e+06
4338.16	2.112337e+06
4343.16	2.113175e+06
4348.15	2.114981e+06
4353.15	2.116419e+06
4358.14	2.118204e+06
4363.14	2.119489e+06
4368.13	2.120763e+06
4373.13	2.122026e+06
4378.12	2.123769e+06
4383.12	2.125012e+06
4388.11	2.126734e+06
4393.11	2.127955e+06
4398.10	2.129165e+06
4403.10	2.130855e+06
4408.09	2.132404e+06
4413.09	2.133714e+06
4418.08	2.134750e+06
4423.08	2.136399e+06
4428.07	2.138037e+06
4433.07	2.139174e+06
4438.06	2.140659e+06
4443.06	2.142266e+06
4448.05	2.143372e+06
4453.05	2.144826e+06
4458.04	2.146402e+06
4463.04	2.147968e+06
4468.03	2.148899e+06
4473.03	2.150312e+06
4478.02	2.151847e+06
4483.02	2.153372e+06
4488.01	2.154262e+06
4493.01	2.156125e+06
4498.00	2.157127e+06
4503.00	2.158971e+06
4507.99	2.159820e+06
4512.99	2.161283e+06
4517.98	2.162604e+06
4522.98	2.164047e+06
4527.97	2.165840e+06
4532.97	2.166505e+06
4537.96	2.168051e+06
4542.96	2.169680e+06
4547.95	2.170941e+06
4552.95	2.171831e+06
4557.94	2.173564e+06
4562.94	2.174794e+06
4567.93	2.176373e+06
4572.93	2.177224e+06
4577.92	2.178917e+06
4582.92	2.180107e+06
4587.91	2.181288e+06
4592.91	2.182951e+06
4597.90	2.184112e+06
4602.90	2.185262e+06
4607.89	2.186270e+06
4612.89	2.188028e+06
4617.88	2.189509e+06
4622.88	2.190754e+06
4627.87	2.191722e+06
4632.87	2.192681e+06
4637.86	2.194884e+06
4642.86	2.195330e+06
4647.85	2.197380e+06
4652.85	2.197940e+06
4657.84	2.199971e+06
4662.84	2.200378e+06
4667.83	2.202390e+06
4672.83	2.203272e+06
4677.82	2.204771e+06
4682.82	2.205768e+06
4687.81	2.207114e+06
4692.81	2.208585e+06
4697.80	2.209419e+06
4702.80	2.211366e+06
4707.79	2.212181e+06
4712.79	2.213121e+06
4717.78	2.214905e+06
4722.78	2.215692e+06
4727.77	2.217098e+06
4732.77	2.218495e+06
4737.76	2.219748e+06
4742.76	2.220992e+06
4747.75	2.222226e+06
4752.75	2.223092e+06
4757.74	2.224803e+06
4762.74	2.225651e+06
4767.73	2.226849e+06
4772.73	2.228532e+06
4777.72	2.229218e+06
