Material: cobalt, G calculated based on spin resolved DFT calculation from Jan Vorberger, sum mino+majo, lattice temperature: 295 K
Temperature [K], G_ep [W/(m^3K)]
10.00	1.048540e+18 
14.99	1.067288e+18 
19.99	1.086687e+18 
24.98	1.106697e+18 
29.98	1.127198e+18 
34.97	1.148002e+18 
39.97	1.168890e+18 
44.96	1.189641e+18 
49.96	1.210055e+18 
54.95	1.229967e+18 
59.95	1.249251e+18 
64.94	1.267818e+18 
69.94	1.285611e+18 
74.93	1.302601e+18 
79.93	1.318782e+18 
84.92	1.334160e+18 
89.92	1.348757e+18 
94.91	1.362601e+18 
99.91	1.375724e+18 
104.90	1.388164e+18 
109.90	1.399958e+18 
114.89	1.411143e+18 
119.89	1.421757e+18 
124.88	1.431837e+18 
129.88	1.441416e+18 
134.87	1.450527e+18 
139.87	1.459203e+18 
144.86	1.467471e+18 
149.86	1.475359e+18 
154.85	1.482892e+18 
159.85	1.490094e+18 
164.84	1.496987e+18 
169.84	1.503590e+18 
174.83	1.509924e+18 
179.83	1.516004e+18 
184.82	1.521848e+18 
189.82	1.527470e+18 
194.81	1.532884e+18 
199.81	1.538103e+18 
204.80	1.543138e+18 
209.80	1.548000e+18 
214.79	1.552700e+18 
219.79	1.557246e+18 
224.78	1.561648e+18 
229.78	1.565914e+18 
234.77	1.570050e+18 
239.77	1.574064e+18 
244.76	1.577962e+18 
249.76	1.581751e+18 
254.75	1.585435e+18 
259.75	1.589019e+18 
264.74	1.592509e+18 
269.74	1.595909e+18 
274.73	1.599223e+18 
279.73	1.602455e+18 
284.72	1.605609e+18 
289.72	1.608687e+18 
294.71	1.611694e+18 
299.71	1.614631e+18 
304.70	1.617502e+18 
309.70	1.620310e+18 
314.69	1.623056e+18 
319.69	1.625744e+18 
324.68	1.628374e+18 
329.68	1.630951e+18 
334.67	1.633474e+18 
339.67	1.635947e+18 
344.66	1.638370e+18 
349.66	1.640746e+18 
354.65	1.643076e+18 
359.65	1.645361e+18 
364.64	1.647604e+18 
369.64	1.649804e+18 
374.63	1.651965e+18 
379.63	1.654086e+18 
384.62	1.656169e+18 
389.62	1.658216e+18 
394.61	1.660227e+18 
399.61	1.662203e+18 
404.60	1.664146e+18 
409.60	1.666056e+18 
414.59	1.667934e+18 
419.59	1.669781e+18 
424.58	1.671599e+18 
429.58	1.673388e+18 
434.57	1.675148e+18 
439.57	1.676881e+18 
444.56	1.678588e+18 
449.56	1.680269e+18 
454.55	1.681925e+18 
459.55	1.683556e+18 
464.54	1.685164e+18 
469.54	1.686749e+18 
474.53	1.688312e+18 
479.53	1.689854e+18 
484.52	1.691374e+18 
489.52	1.692875e+18 
494.51	1.694356e+18 
499.51	1.695818e+18 
504.50	1.697261e+18 
509.50	1.698687e+18 
514.49	1.700096e+18 
519.49	1.701488e+18 
524.48	1.702864e+18 
529.48	1.704225e+18 
534.47	1.705570e+18 
539.47	1.706902e+18 
544.46	1.708219e+18 
549.46	1.709523e+18 
554.45	1.710815e+18 
559.45	1.712094e+18 
564.44	1.713361e+18 
569.44	1.714617e+18 
574.43	1.715862e+18 
579.43	1.717096e+18 
584.42	1.718321e+18 
589.42	1.719536e+18 
594.41	1.720742e+18 
599.41	1.721940e+18 
604.40	1.723129e+18 
609.40	1.724311e+18 
614.39	1.725485e+18 
619.39	1.726653e+18 
624.38	1.727814e+18 
629.38	1.728969e+18 
634.37	1.730118e+18 
639.37	1.731262e+18 
644.36	1.732402e+18 
649.36	1.733536e+18 
654.35	1.734667e+18 
659.35	1.735793e+18 
664.34	1.736917e+18 
669.34	1.738037e+18 
674.33	1.739155e+18 
679.33	1.740270e+18 
684.32	1.741383e+18 
689.32	1.742495e+18 
694.31	1.743605e+18 
699.31	1.744714e+18 
704.30	1.745822e+18 
709.30	1.746930e+18 
714.29	1.748038e+18 
719.29	1.749147e+18 
724.28	1.750255e+18 
729.28	1.751365e+18 
734.27	1.752475e+18 
739.27	1.753587e+18 
744.26	1.754701e+18 
749.26	1.755817e+18 
754.25	1.756935e+18 
759.25	1.758055e+18 
764.24	1.759178e+18 
769.24	1.760304e+18 
774.23	1.761433e+18 
779.23	1.762566e+18 
784.22	1.763703e+18 
789.22	1.764844e+18 
794.21	1.765988e+18 
799.21	1.767138e+18 
804.20	1.768292e+18 
809.20	1.769451e+18 
814.19	1.770615e+18 
819.19	1.771784e+18 
824.18	1.772959e+18 
829.18	1.774140e+18 
834.17	1.775327e+18 
839.17	1.776520e+18 
844.16	1.777719e+18 
849.16	1.778925e+18 
854.15	1.780138e+18 
859.15	1.781358e+18 
864.14	1.782584e+18 
869.14	1.783819e+18 
874.13	1.785060e+18 
879.13	1.786310e+18 
884.12	1.787567e+18 
889.12	1.788832e+18 
894.11	1.790106e+18 
899.11	1.791387e+18 
904.10	1.792677e+18 
909.10	1.793976e+18 
914.09	1.795284e+18 
919.09	1.796600e+18 
924.08	1.797917e+18 
929.08	1.799243e+18 
934.07	1.800578e+18 
939.07	1.801922e+18 
944.06	1.803276e+18 
949.06	1.804640e+18 
954.05	1.806013e+18 
959.05	1.807396e+18 
964.04	1.808790e+18 
969.04	1.810193e+18 
974.03	1.811607e+18 
979.03	1.813031e+18 
984.02	1.814466e+18 
989.02	1.815911e+18 
994.01	1.817367e+18 
999.01	1.818834e+18 
1004.00	1.820312e+18 
1009.00	1.821800e+18 
1013.99	1.823300e+18 
1018.99	1.824811e+18 
1023.98	1.826333e+18 
1028.98	1.827866e+18 
1033.97	1.829412e+18 
1038.97	1.830969e+18 
1043.96	1.832536e+18 
1048.96	1.834117e+18 
1053.95	1.835709e+18 
1058.95	1.837312e+18 
1063.94	1.838928e+18 
1068.94	1.840555e+18 
1073.93	1.842194e+18 
1078.93	1.843846e+18 
1083.92	1.845509e+18 
1088.92	1.847185e+18 
1093.91	1.848874e+18 
1098.91	1.850573e+18 
1103.90	1.852287e+18 
1108.90	1.854012e+18 
1113.89	1.855750e+18 
1118.89	1.857500e+18 
1123.88	1.859263e+18 
1128.88	1.861038e+18 
1133.87	1.862827e+18 
1138.87	1.864627e+18 
1143.86	1.866440e+18 
1148.86	1.868267e+18 
1153.85	1.870105e+18 
1158.85	1.871957e+18 
1163.84	1.873821e+18 
1168.84	1.875698e+18 
1173.83	1.877589e+18 
1178.83	1.879492e+18 
1183.82	1.881409e+18 
1188.82	1.883338e+18 
1193.81	1.885280e+18 
1198.81	1.887235e+18 
1203.80	1.889202e+18 
1208.80	1.891184e+18 
1213.79	1.893178e+18 
1218.79	1.895184e+18 
1223.78	1.897204e+18 
1228.78	1.899238e+18 
1233.77	1.901284e+18 
1238.77	1.903343e+18 
1243.76	1.905414e+18 
1248.76	1.907499e+18 
1253.75	1.909597e+18 
1258.75	1.911708e+18 
1263.74	1.913832e+18 
1268.74	1.915969e+18 
1273.73	1.918119e+18 
1278.73	1.920282e+18 
1283.72	1.922457e+18 
1288.72	1.924646e+18 
1293.71	1.926847e+18 
1298.71	1.929062e+18 
1303.70	1.931290e+18 
1308.70	1.933531e+18 
1313.69	1.935783e+18 
1318.69	1.938050e+18 
1323.68	1.940328e+18 
1328.68	1.942619e+18 
1333.67	1.944924e+18 
1338.67	1.947241e+18 
1343.66	1.949570e+18 
1348.66	1.951913e+18 
1353.65	1.954267e+18 
1358.65	1.956634e+18 
1363.64	1.959014e+18 
1368.64	1.961406e+18 
1373.63	1.963812e+18 
1378.63	1.966228e+18 
1383.62	1.968659e+18 
1388.62	1.971100e+18 
1393.61	1.973554e+18 
1398.61	1.976021e+18 
1403.60	1.978499e+18 
1408.60	1.980991e+18 
1413.59	1.983495e+18 
1418.59	1.986009e+18 
1423.58	1.988537e+18 
1428.58	1.991076e+18 
1433.57	1.993627e+18 
1438.57	1.996190e+18 
1443.56	1.998765e+18 
1448.56	2.001352e+18 
1453.55	2.003949e+18 
1458.55	2.006560e+18 
1463.54	2.009181e+18 
1468.54	2.011813e+18 
1473.53	2.014458e+18 
1478.53	2.017114e+18 
1483.52	2.019781e+18 
1488.52	2.022461e+18 
1493.51	2.025151e+18 
1498.51	2.027852e+18 
1503.50	2.030565e+18 
1508.50	2.033288e+18 
1513.49	2.036022e+18 
1518.49	2.038768e+18 
1523.48	2.041524e+18 
1528.48	2.044292e+18 
1533.47	2.047070e+18 
1538.47	2.049858e+18 
1543.46	2.052658e+18 
1548.46	2.055467e+18 
1553.45	2.058289e+18 
1558.45	2.061119e+18 
1563.44	2.063960e+18 
1568.44	2.066812e+18 
1573.43	2.069672e+18 
1578.43	2.072542e+18 
1583.42	2.075422e+18 
1588.42	2.078311e+18 
1593.41	2.081212e+18 
1598.41	2.084120e+18 
1603.40	2.087041e+18 
1608.40	2.089969e+18 
1613.39	2.092907e+18 
1618.39	2.095856e+18 
1623.38	2.098813e+18 
1628.38	2.101780e+18 
1633.37	2.104757e+18 
1638.37	2.107743e+18 
1643.36	2.110739e+18 
1648.36	2.113742e+18 
1653.35	2.116756e+18 
1658.35	2.119778e+18 
1663.34	2.122809e+18 
1668.34	2.125848e+18 
1673.33	2.128897e+18 
1678.33	2.131956e+18 
1683.32	2.135021e+18 
1688.32	2.138095e+18 
1693.31	2.141178e+18 
1698.31	2.144269e+18 
1703.30	2.147368e+18 
1708.30	2.150476e+18 
1713.29	2.153592e+18 
1718.29	2.156717e+18 
1723.28	2.159848e+18 
1728.28	2.162988e+18 
1733.27	2.166136e+18 
1738.27	2.169290e+18 
1743.26	2.172455e+18 
1748.26	2.175625e+18 
1753.25	2.178803e+18 
1758.25	2.181991e+18 
1763.24	2.185183e+18 
1768.24	2.188384e+18 
1773.23	2.191592e+18 
1778.23	2.194807e+18 
1783.22	2.198029e+18 
1788.22	2.201259e+18 
1793.21	2.204493e+18 
1798.21	2.207737e+18 
1803.20	2.210987e+18 
1808.20	2.214243e+18 
1813.19	2.217506e+18 
1818.19	2.220776e+18 
1823.18	2.224053e+18 
1828.18	2.227332e+18 
1833.17	2.230620e+18 
1838.17	2.233912e+18 
1843.16	2.237212e+18 
1848.16	2.240517e+18 
1853.15	2.243827e+18 
1858.15	2.247146e+18 
1863.14	2.250468e+18 
1868.14	2.253797e+18 
1873.13	2.257133e+18 
1878.13	2.260473e+18 
1883.12	2.263818e+18 
1888.12	2.267169e+18 
1893.11	2.270527e+18 
1898.11	2.273889e+18 
1903.10	2.277257e+18 
1908.10	2.280629e+18 
1913.09	2.284007e+18 
1918.09	2.287389e+18 
1923.08	2.290777e+18 
1928.08	2.294170e+18 
1933.07	2.297568e+18 
1938.07	2.300970e+18 
1943.06	2.304377e+18 
1948.06	2.307789e+18 
1953.05	2.311206e+18 
1958.05	2.314627e+18 
1963.04	2.318053e+18 
1968.04	2.321483e+18 
1973.03	2.324917e+18 
1978.03	2.328356e+18 
1983.02	2.331798e+18 
1988.02	2.335245e+18 
1993.01	2.338696e+18 
1998.01	2.342150e+18 
2003.00	2.345607e+18 
2008.00	2.349056e+18 
2012.99	2.352397e+18 
2017.99	2.355743e+18 
2022.98	2.359094e+18 
2027.98	2.362449e+18 
2032.97	2.365806e+18 
2037.97	2.369168e+18 
2042.96	2.372532e+18 
2047.96	2.375899e+18 
2052.95	2.379269e+18 
2057.95	2.382642e+18 
2062.94	2.386013e+18 
2067.94	2.389392e+18 
2072.93	2.392773e+18 
2077.93	2.396157e+18 
2082.92	2.399544e+18 
2087.92	2.402933e+18 
2092.91	2.406324e+18 
2097.91	2.409719e+18 
2102.90	2.413116e+18 
2107.90	2.416519e+18 
2112.89	2.419920e+18 
2117.89	2.423323e+18 
2122.88	2.426729e+18 
2127.88	2.430136e+18 
2132.87	2.433545e+18 
2137.87	2.436956e+18 
2142.86	2.440370e+18 
2147.86	2.443789e+18 
2152.85	2.447205e+18 
2157.85	2.450624e+18 
2162.84	2.454043e+18 
2167.84	2.457470e+18 
2172.83	2.460893e+18 
2177.83	2.464317e+18 
2182.82	2.467747e+18 
2187.82	2.471170e+18 
2192.81	2.474597e+18 
2197.81	2.478020e+18 
2202.80	2.481444e+18 
2207.80	2.484875e+18 
2212.79	2.488306e+18 
2217.79	2.491734e+18 
2222.78	2.495167e+18 
2227.78	2.498596e+18 
2232.77	2.502030e+18 
2237.77	2.505466e+18 
2242.76	2.508897e+18 
2247.76	2.512334e+18 
2252.75	2.515771e+18 
2257.75	2.519209e+18 
2262.74	2.522647e+18 
2267.74	2.526085e+18 
2272.73	2.529524e+18 
2277.73	2.532963e+18 
2282.72	2.536402e+18 
2287.72	2.539842e+18 
2292.71	2.543280e+18 
2297.71	2.546721e+18 
2302.70	2.550159e+18 
2307.70	2.553600e+18 
2312.69	2.557044e+18 
2317.69	2.560483e+18 
2322.68	2.563922e+18 
2327.68	2.567366e+18 
2332.67	2.570804e+18 
2337.67	2.574240e+18 
2342.66	2.577677e+18 
2347.66	2.581108e+18 
2352.65	2.584545e+18 
2357.65	2.587980e+18 
2362.64	2.591411e+18 
2367.64	2.594845e+18 
2372.63	2.598279e+18 
2377.63	2.601712e+18 
2382.62	2.605143e+18 
2387.62	2.608575e+18 
2392.61	2.612001e+18 
2397.61	2.615431e+18 
2402.60	2.618863e+18 
2407.60	2.622291e+18 
2412.59	2.625717e+18 
2417.59	2.629142e+18 
2422.58	2.632566e+18 
2427.58	2.635994e+18 
2432.57	2.639415e+18 
2437.57	2.642836e+18 
2442.56	2.646259e+18 
2447.56	2.649677e+18 
2452.55	2.653097e+18 
2457.55	2.656513e+18 
2462.54	2.659930e+18 
2467.54	2.663347e+18 
2472.53	2.666761e+18 
2477.53	2.670168e+18 
2482.52	2.673575e+18 
2487.52	2.676981e+18 
2492.51	2.680385e+18 
2497.51	2.683787e+18 
2502.50	2.687187e+18 
2507.50	2.690590e+18 
2512.49	2.693985e+18 
2517.49	2.697380e+18 
2522.48	2.700773e+18 
2527.48	2.704168e+18 
2532.47	2.707557e+18 
2537.47	2.710947e+18 
2542.46	2.714330e+18 
2547.46	2.717718e+18 
2552.45	2.721096e+18 
2557.45	2.724479e+18 
2562.44	2.727859e+18 
2567.44	2.731235e+18 
2572.43	2.734610e+18 
2577.43	2.737983e+18 
2582.42	2.741352e+18 
2587.42	2.744720e+18 
2592.41	2.748084e+18 
2597.41	2.751447e+18 
2602.40	2.754807e+18 
2607.40	2.758164e+18 
2612.39	2.761522e+18 
2617.39	2.764870e+18 
2622.38	2.768222e+18 
2627.38	2.771566e+18 
2632.37	2.774912e+18 
2637.37	2.778249e+18 
2642.36	2.781589e+18 
2647.36	2.784926e+18 
2652.35	2.788259e+18 
2657.35	2.791590e+18 
2662.34	2.794914e+18 
2667.34	2.798240e+18 
2672.33	2.801566e+18 
2677.33	2.804884e+18 
2682.32	2.808199e+18 
2687.32	2.811512e+18 
2692.31	2.814822e+18 
2697.31	2.818132e+18 
2702.30	2.821435e+18 
2707.30	2.824738e+18 
2712.29	2.828034e+18 
2717.29	2.831332e+18 
2722.28	2.834625e+18 
2727.28	2.837911e+18 
2732.27	2.841199e+18 
2737.27	2.844482e+18 
2742.26	2.847759e+18 
2747.26	2.851033e+18 
2752.25	2.854302e+18 
2757.25	2.857569e+18 
2762.24	2.860832e+18 
2767.24	2.864090e+18 
2772.23	2.867350e+18 
2777.23	2.870602e+18 
2782.22	2.873850e+18 
2787.22	2.877098e+18 
2792.21	2.880339e+18 
2797.21	2.883580e+18 
2802.20	2.886817e+18 
2807.20	2.890046e+18 
2812.19	2.893275e+18 
2817.19	2.896500e+18 
2822.18	2.899722e+18 
2827.18	2.902939e+18 
2832.17	2.906153e+18 
2837.17	2.909363e+18 
2842.16	2.912569e+18 
2847.16	2.915770e+18 
2852.15	2.918972e+18 
2857.15	2.922165e+18 
2862.14	2.925355e+18 
2867.14	2.928542e+18 
2872.13	2.931719e+18 
2877.13	2.934898e+18 
2882.12	2.938072e+18 
2887.12	2.941237e+18 
2892.11	2.944402e+18 
2897.11	2.947564e+18 
2902.10	2.950721e+18 
2907.10	2.953872e+18 
2912.09	2.957022e+18 
2917.09	2.960165e+18 
2922.08	2.963305e+18 
2927.08	2.966439e+18 
2932.07	2.969571e+18 
2937.07	2.972701e+18 
2942.06	2.975823e+18 
2947.06	2.978943e+18 
2952.05	2.982056e+18 
2957.05	2.985182e+18 
2962.04	2.988303e+18 
2967.04	2.991424e+18 
2972.03	2.994539e+18 
2977.03	2.997649e+18 
2982.02	3.000752e+18 
2987.02	3.003851e+18 
2992.01	3.006945e+18 
2997.01	3.010035e+18 
3002.00	3.013120e+18 
3007.00	3.016203e+18 
3011.99	3.019280e+18 
3016.99	3.022350e+18 
3021.98	3.025415e+18 
3026.98	3.028481e+18 
3031.97	3.031537e+18 
3036.97	3.034592e+18 
3041.96	3.037639e+18 
3046.96	3.040684e+18 
3051.95	3.043726e+18 
3056.95	3.046758e+18 
3061.94	3.049789e+18 
3066.94	3.052814e+18 
3071.93	3.055836e+18 
3076.93	3.058852e+18 
3081.92	3.061863e+18 
3086.92	3.064868e+18 
3091.91	3.067871e+18 
3096.91	3.070867e+18 
3101.90	3.073861e+18 
3106.90	3.076845e+18 
3111.89	3.079824e+18 
3116.89	3.082800e+18 
3121.88	3.085768e+18 
3126.88	3.088734e+18 
3131.87	3.091693e+18 
3136.87	3.094650e+18 
3141.86	3.097600e+18 
3146.86	3.100546e+18 
3151.85	3.103484e+18 
3156.85	3.106420e+18 
3161.84	3.109350e+18 
3166.84	3.112276e+18 
3171.83	3.115196e+18 
3176.83	3.118111e+18 
3181.82	3.121019e+18 
3186.82	3.123928e+18 
3191.81	3.126827e+18 
3196.81	3.129720e+18 
3201.80	3.132613e+18 
3206.80	3.135496e+18 
3211.79	3.138379e+18 
3216.79	3.141251e+18 
3221.78	3.144120e+18 
3226.78	3.146980e+18 
3231.77	3.149837e+18 
3236.77	3.152688e+18 
3241.76	3.155536e+18 
3246.76	3.158373e+18 
3251.75	3.161209e+18 
3256.75	3.164040e+18 
3261.74	3.166866e+18 
3266.74	3.169684e+18 
3271.73	3.172498e+18 
3276.73	3.175311e+18 
3281.72	3.178115e+18 
3286.72	3.180911e+18 
3291.71	3.183704e+18 
3296.71	3.186493e+18 
3301.70	3.189276e+18 
3306.70	3.192055e+18 
3311.69	3.194826e+18 
3316.69	3.197592e+18 
3321.68	3.200352e+18 
3326.68	3.203109e+18 
3331.67	3.205861e+18 
3336.67	3.208603e+18 
3341.66	3.211340e+18 
3346.66	3.214070e+18 
3351.65	3.216797e+18 
3356.65	3.219517e+18 
3361.64	3.222233e+18 
3366.64	3.224942e+18 
3371.63	3.227645e+18 
3376.63	3.230344e+18 
3381.62	3.233035e+18 
3386.62	3.235723e+18 
3391.61	3.238406e+18 
3396.61	3.241081e+18 
3401.60	3.243751e+18 
3406.60	3.246419e+18 
3411.59	3.249078e+18 
3416.59	3.251732e+18 
3421.58	3.254381e+18 
3426.58	3.257025e+18 
3431.57	3.259663e+18 
3436.57	3.262294e+18 
3441.56	3.264921e+18 
3446.56	3.267542e+18 
3451.55	3.270157e+18 
3456.55	3.272760e+18 
3461.54	3.275363e+18 
3466.54	3.277959e+18 
3471.53	3.280549e+18 
3476.53	3.283131e+18 
3481.52	3.285710e+18 
3486.52	3.288285e+18 
3491.51	3.290853e+18 
3496.51	3.293414e+18 
3501.50	3.295969e+18 
3506.50	3.298519e+18 
3511.49	3.301066e+18 
3516.49	3.303605e+18 
3521.48	3.306139e+18 
3526.48	3.308666e+18 
3531.47	3.311189e+18 
3536.47	3.313704e+18 
3541.46	3.316216e+18 
3546.46	3.318720e+18 
3551.45	3.321221e+18 
3556.45	3.323714e+18 
3561.44	3.326201e+18 
3566.44	3.328682e+18 
3571.43	3.331157e+18 
3576.43	3.333627e+18 
3581.42	3.336091e+18 
3586.42	3.338549e+18 
3591.41	3.341002e+18 
3596.41	3.343450e+18 
3601.40	3.345890e+18 
3606.40	3.348324e+18 
3611.39	3.350755e+18 
3616.39	3.353178e+18 
3621.38	3.355595e+18 
3626.38	3.358007e+18 
3631.37	3.360414e+18 
3636.37	3.362815e+18 
3641.36	3.365210e+18 
3646.36	3.367600e+18 
3651.35	3.369982e+18 
3656.35	3.372358e+18 
3661.34	3.374732e+18 
3666.34	3.377097e+18 
3671.33	3.379459e+18 
3676.33	3.381812e+18 
3681.32	3.384159e+18 
3686.32	3.386502e+18 
3691.31	3.388835e+18 
3696.31	3.391166e+18 
3701.30	3.393492e+18 
3706.30	3.395811e+18 
3711.29	3.398120e+18 
3716.29	3.400428e+18 
3721.28	3.402730e+18 
3726.28	3.405024e+18 
3731.27	3.407315e+18 
3736.27	3.409598e+18 
3741.26	3.411878e+18 
3746.26	3.414150e+18 
3751.25	3.416416e+18 
3756.25	3.418676e+18 
3761.24	3.420929e+18 
3766.24	3.423179e+18 
3771.23	3.425425e+18 
3776.23	3.427661e+18 
3781.22	3.429893e+18 
3786.22	3.432117e+18 
3791.21	3.434338e+18 
3796.21	3.436550e+18 
3801.20	3.438757e+18 
3806.20	3.440961e+18 
3811.19	3.443156e+18 
3816.19	3.445345e+18 
3821.18	3.447530e+18 
3826.18	3.449709e+18 
3831.17	3.451882e+18 
3836.17	3.454047e+18 
3841.16	3.456211e+18 
3846.16	3.458367e+18 
3851.15	3.460516e+18 
3856.15	3.462661e+18 
3861.14	3.464798e+18 
3866.14	3.466929e+18 
3871.13	3.469058e+18 
3876.13	3.471178e+18 
3881.12	3.473295e+18 
3886.12	3.475402e+18 
3891.11	3.477505e+18 
3896.11	3.479603e+18 
3901.10	3.481697e+18 
3906.10	3.483781e+18 
3911.09	3.485862e+18 
3916.09	3.487937e+18 
3921.08	3.490006e+18 
3926.08	3.492068e+18 
3931.07	3.494126e+18 
3936.07	3.496177e+18 
3941.06	3.498224e+18 
3946.06	3.500263e+18 
3951.05	3.502297e+18 
3956.05	3.504325e+18 
3961.04	3.506347e+18 
3966.04	3.508364e+18 
3971.03	3.510378e+18 
3976.03	3.512383e+18 
3981.02	3.514381e+18 
3986.02	3.516376e+18 
3991.01	3.518365e+18 
3996.01	3.520348e+18 
4001.00	3.522324e+18 
4006.00	3.524293e+18 
4010.99	3.526259e+18 
4015.99	3.528217e+18 
4020.98	3.530172e+18 
4025.98	3.532118e+18 
4030.97	3.534059e+18 
4035.97	3.535997e+18 
4040.96	3.537925e+18 
4045.96	3.539852e+18 
4050.95	3.541769e+18 
4055.95	3.543684e+18 
4060.94	3.545590e+18 
4065.94	3.547493e+18 
4070.93	3.549390e+18 
4075.93	3.551279e+18 
4080.92	3.553165e+18 
4085.92	3.555043e+18 
4090.91	3.556918e+18 
4095.91	3.558787e+18 
4100.90	3.560647e+18 
4105.90	3.562505e+18 
4110.89	3.564358e+18 
4115.89	3.566201e+18 
4120.88	3.568042e+18 
4125.88	3.569879e+18 
4130.87	3.571709e+18 
4135.87	3.573531e+18 
4140.86	3.575350e+18 
4145.86	3.577163e+18 
4150.85	3.578971e+18 
4155.85	3.580773e+18 
4160.84	3.582568e+18 
4165.84	3.584357e+18 
4170.83	3.586143e+18 
4175.83	3.587922e+18 
4180.82	3.589697e+18 
4185.82	3.591465e+18 
4190.81	3.593229e+18 
4195.81	3.594986e+18 
4200.80	3.596737e+18 
4205.80	3.598483e+18 
4210.79	3.600221e+18 
4215.79	3.601956e+18 
4220.78	3.603687e+18 
4225.78	3.605420e+18 
4230.77	3.607149e+18 
4235.77	3.608870e+18 
4240.76	3.610587e+18 
4245.76	3.612299e+18 
4250.75	3.614006e+18 
4255.75	3.615706e+18 
4260.74	3.617402e+18 
4265.74	3.619090e+18 
4270.73	3.620774e+18 
4275.73	3.622452e+18 
4280.72	3.624125e+18 
4285.72	3.625792e+18 
4290.71	3.627454e+18 
4295.71	3.629111e+18 
4300.70	3.630762e+18 
4305.70	3.632437e+18 
4310.69	3.634117e+18 
4315.69	3.635794e+18 
4320.68	3.637465e+18 
4325.68	3.639130e+18 
4330.67	3.640786e+18 
4335.67	3.642438e+18 
4340.66	3.644081e+18 
4345.66	3.645720e+18 
4350.65	3.647353e+18 
4355.65	3.648983e+18 
4360.64	3.650607e+18 
4365.64	3.652224e+18 
4370.63	3.653835e+18 
4375.63	3.655442e+18 
4380.62	3.657044e+18 
4385.62	3.658641e+18 
4390.61	3.660231e+18 
4395.61	3.661818e+18 
4400.60	3.663397e+18 
4405.60	3.664974e+18 
4410.59	3.666543e+18 
4415.59	3.668109e+18 
4420.58	3.669668e+18 
4425.58	3.671222e+18 
4430.57	3.672771e+18 
4435.57	3.674314e+18 
4440.56	3.675847e+18 
4445.56	3.677375e+18 
4450.55	3.678898e+18 
4455.55	3.680416e+18 
4460.54	3.681928e+18 
4465.54	3.683436e+18 
4470.53	3.684936e+18 
4475.53	3.686434e+18 
4480.52	3.687926e+18 
4485.52	3.689412e+18 
4490.51	3.690894e+18 
4495.51	3.692369e+18 
4500.50	3.693839e+18 
4505.50	3.695306e+18 
4510.49	3.696767e+18 
4515.49	3.698222e+18 
4520.48	3.699672e+18 
4525.48	3.701117e+18 
4530.47	3.702557e+18 
4535.47	3.703992e+18 
4540.46	3.705422e+18 
4545.46	3.706845e+18 
4550.45	3.708260e+18 
4555.45	3.709672e+18 
